5.020000	55.000000
5.040000	57.000000
5.060000	56.000000
5.080000	68.000000
5.100000	50.000000
5.120000	67.000000
5.140000	56.000000
5.160000	69.000000
5.180000	50.000000
5.200000	66.000000
5.220000	61.000000
5.240000	50.000000
5.260000	47.000000
5.280000	56.000000
5.300000	54.000000
5.320000	56.000000
5.340000	53.000000
5.360000	47.000000
5.380000	49.000000
5.400000	63.000000
5.420000	64.000000
5.440000	46.000000
5.460000	48.000000
5.480000	42.000000
5.500000	44.000000
5.520000	47.000000
5.540000	53.000000
5.560000	55.000000
5.580000	41.000000
5.600000	50.000000
5.620000	50.000000
5.640000	56.000000
5.660000	58.000000
5.680000	57.000000
5.700000	48.000000
5.720000	62.000000
5.740000	50.000000
5.760000	40.000000
5.780000	50.000000
5.800000	47.000000
5.820000	58.000000
5.840000	43.000000
5.860000	56.000000
5.880000	46.000000
5.900000	50.000000
5.920000	62.000000
5.940000	36.000000
5.960000	41.000000
5.980000	38.000000
6.000000	51.000000
6.020000	53.000000
6.040000	43.000000
6.060000	41.000000
6.080000	56.000000
6.100000	53.000000
6.120000	47.000000
6.140000	51.000000
6.160000	47.000000
6.180000	41.000000
6.200000	39.000000
6.220000	38.000000
6.240000	48.000000
6.260000	48.000000
6.280000	42.000000
6.300000	45.000000
6.320000	33.000000
6.340000	40.000000
6.360000	40.000000
6.380000	39.000000
6.400000	39.000000
6.420000	34.000000
6.440000	50.000000
6.460000	32.000000
6.480000	44.000000
6.500000	47.000000
6.520000	48.000000
6.540000	47.000000
6.560000	47.000000
6.580000	43.000000
6.600000	36.000000
6.620000	42.000000
6.640000	50.000000
6.660000	30.000000
6.680000	29.000000
6.700000	43.000000
6.720000	41.000000
6.740000	38.000000
6.760000	38.000000
6.780000	51.000000
6.800000	38.000000
6.820000	48.000000
6.840000	39.000000
6.860000	35.000000
6.880000	47.000000
6.900000	43.000000
6.920000	33.000000
6.940000	40.000000
6.960000	37.000000
6.980000	45.000000
7.000000	39.000000
7.020000	48.000000
7.040000	47.000000
7.060000	32.000000
7.080000	43.000000
7.100000	38.000000
7.120000	42.000000
7.140000	44.000000
7.160000	39.000000
7.180000	47.000000
7.200000	31.000000
7.220000	36.000000
7.240000	40.000000
7.260000	42.000000
7.280000	45.000000
7.300000	40.000000
7.320000	41.000000
7.340000	43.000000
7.360000	36.000000
7.380000	33.000000
7.400000	35.000000
7.420000	36.000000
7.440000	41.000000
7.460000	30.000000
7.480000	43.000000
7.500000	41.000000
7.520000	37.000000
7.540000	52.000000
7.560000	52.000000
7.580000	40.000000
7.600000	50.000000
7.620000	41.000000
7.640000	49.000000
7.660000	53.000000
7.680000	56.000000
7.700000	47.000000
7.720000	58.000000
7.740000	59.000000
7.760000	54.000000
7.780000	79.000000
7.800000	88.000000
7.820000	98.000000
7.840000	89.000000
7.860000	86.000000
7.880000	84.000000
7.900000	56.000000
7.920000	65.000000
7.940000	66.000000
7.960000	49.000000
7.980000	46.000000
8.000000	50.000000
8.020000	41.000000
8.040000	42.000000
8.060000	47.000000
8.080000	48.000000
8.100000	35.000000
8.120000	30.000000
8.140000	40.000000
8.160000	45.000000
8.180000	39.000000
8.200000	51.000000
8.220000	27.000000
8.240000	35.000000
8.260000	44.000000
8.280000	35.000000
8.300000	36.000000
8.320000	29.000000
8.340000	34.000000
8.360000	32.000000
8.380000	43.000000
8.400000	35.000000
8.420000	35.000000
8.440000	40.000000
8.460000	32.000000
8.480000	29.000000
8.500000	23.000000
8.520000	35.000000
8.540000	36.000000
8.560000	36.000000
8.580000	37.000000
8.600000	35.000000
8.620000	45.000000
8.640000	45.000000
8.660000	26.000000
8.680000	37.000000
8.700000	35.000000
8.720000	34.000000
8.740000	15.000000
8.760000	32.000000
8.780000	34.000000
8.800000	45.000000
8.820000	36.000000
8.840000	29.000000
8.860000	35.000000
8.880000	34.000000
8.900000	28.000000
8.920000	27.000000
8.940000	40.000000
8.960000	31.000000
8.980000	25.000000
9.000000	32.000000
9.020000	29.000000
9.040000	36.000000
9.060000	31.000000
9.080000	23.000000
9.100000	20.000000
9.120000	27.000000
9.140000	32.000000
9.160000	28.000000
9.180000	27.000000
9.200000	21.000000
9.220000	33.000000
9.240000	27.000000
9.260000	27.000000
9.280000	32.000000
9.300000	30.000000
9.320000	37.000000
9.340000	29.000000
9.360000	31.000000
9.380000	26.000000
9.400000	20.000000
9.420000	24.000000
9.440000	29.000000
9.460000	32.000000
9.480000	30.000000
9.500000	25.000000
9.520000	18.000000
9.540000	28.000000
9.560000	18.000000
9.580000	29.000000
9.600000	23.000000
9.620000	30.000000
9.640000	26.000000
9.660000	22.000000
9.680000	22.000000
9.700000	31.000000
9.720000	29.000000
9.740000	23.000000
9.760000	23.000000
9.780000	23.000000
9.800000	26.000000
9.820000	25.000000
9.840000	33.000000
9.860000	19.000000
9.880000	22.000000
9.900000	24.000000
9.920000	26.000000
9.940000	38.000000
9.960000	21.000000
9.980000	32.000000
10.000000	25.000000
10.020000	17.000000
10.040000	23.000000
10.060000	17.000000
10.080000	18.000000
10.100000	25.000000
10.120000	26.000000
10.140000	35.000000
10.160000	22.000000
10.180000	33.000000
10.200000	25.000000
10.220000	30.000000
10.240000	30.000000
10.260000	17.000000
10.280000	19.000000
10.300000	19.000000
10.320000	25.000000
10.340000	28.000000
10.360000	19.000000
10.380000	21.000000
10.400000	20.000000
10.420000	20.000000
10.440000	24.000000
10.460000	21.000000
10.480000	25.000000
10.500000	24.000000
10.520000	24.000000
10.540000	25.000000
10.560000	22.000000
10.580000	23.000000
10.600000	17.000000
10.620000	21.000000
10.640000	28.000000
10.660000	22.000000
10.680000	18.000000
10.700000	22.000000
10.720000	17.000000
10.740000	20.000000
10.760000	22.000000
10.780000	23.000000
10.800000	14.000000
10.820000	22.000000
10.840000	20.000000
10.860000	19.000000
10.880000	24.000000
10.900000	14.000000
10.920000	24.000000
10.940000	28.000000
10.960000	27.000000
10.980000	18.000000
11.000000	23.000000
11.020000	17.000000
11.040000	27.000000
11.060000	31.000000
11.080000	24.000000
11.100000	20.000000
11.120000	12.000000
11.140000	22.000000
11.160000	24.000000
11.180000	20.000000
11.200000	22.000000
11.220000	38.000000
11.240000	26.000000
11.260000	27.000000
11.280000	21.000000
11.300000	13.000000
11.320000	20.000000
11.340000	25.000000
11.360000	27.000000
11.380000	14.000000
11.400000	20.000000
11.420000	25.000000
11.440000	28.000000
11.460000	17.000000
11.480000	19.000000
11.500000	22.000000
11.520000	18.000000
11.540000	21.000000
11.560000	23.000000
11.580000	27.000000
11.600000	18.000000
11.620000	26.000000
11.640000	22.000000
11.660000	19.000000
11.680000	18.000000
11.700000	17.000000
11.720000	23.000000
11.740000	26.000000
11.760000	15.000000
11.780000	20.000000
11.800000	25.000000
11.820000	25.000000
11.840000	29.000000
11.860000	15.000000
11.880000	35.000000
11.900000	33.000000
11.920000	18.000000
11.940000	13.000000
11.960000	29.000000
11.980000	18.000000
12.000000	16.000000
12.020000	23.000000
12.040000	31.000000
12.060000	30.000000
12.080000	25.000000
12.100000	29.000000
12.120000	14.000000
12.140000	15.000000
12.160000	20.000000
12.180000	24.000000
12.200000	21.000000
12.220000	16.000000
12.240000	15.000000
12.260000	20.000000
12.280000	26.000000
12.300000	18.000000
12.320000	25.000000
12.340000	19.000000
12.360000	22.000000
12.380000	21.000000
12.400000	22.000000
12.420000	28.000000
12.440000	19.000000
12.460000	19.000000
12.480000	34.000000
12.500000	26.000000
12.520000	31.000000
12.540000	15.000000
12.560000	21.000000
12.580000	22.000000
12.600000	16.000000
12.620000	19.000000
12.640000	20.000000
12.660000	27.000000
12.680000	28.000000
12.700000	14.000000
12.720000	21.000000
12.740000	25.000000
12.760000	19.000000
12.780000	15.000000
12.800000	23.000000
12.820000	17.000000
12.840000	26.000000
12.860000	24.000000
12.880000	23.000000
12.900000	15.000000
12.920000	19.000000
12.940000	12.000000
12.960000	21.000000
12.980000	17.000000
13.000000	16.000000
13.020000	16.000000
13.040000	27.000000
13.060000	19.000000
13.080000	21.000000
13.100000	22.000000
13.120000	23.000000
13.140000	20.000000
13.160000	26.000000
13.180000	19.000000
13.200000	26.000000
13.220000	19.000000
13.240000	19.000000
13.260000	16.000000
13.280000	22.000000
13.300000	14.000000
13.320000	26.000000
13.340000	26.000000
13.360000	25.000000
13.380000	27.000000
13.400000	18.000000
13.420000	36.000000
13.440000	19.000000
13.460000	17.000000
13.480000	20.000000
13.500000	16.000000
13.520000	18.000000
13.540000	22.000000
13.560000	16.000000
13.580000	23.000000
13.600000	24.000000
13.620000	24.000000
13.640000	30.000000
13.660000	36.000000
13.680000	12.000000
13.700000	21.000000
13.720000	24.000000
13.740000	20.000000
13.760000	19.000000
13.780000	23.000000
13.800000	17.000000
13.820000	17.000000
13.840000	28.000000
13.860000	28.000000
13.880000	20.000000
13.900000	27.000000
13.920000	25.000000
13.940000	25.000000
13.960000	33.000000
13.980000	21.000000
14.000000	27.000000
14.020000	23.000000
14.040000	22.000000
14.060000	14.000000
14.080000	25.000000
14.100000	15.000000
14.120000	21.000000
14.140000	27.000000
14.160000	23.000000
14.180000	22.000000
14.200000	22.000000
14.220000	13.000000
14.240000	23.000000
14.260000	20.000000
14.280000	18.000000
14.300000	24.000000
14.320000	19.000000
14.340000	16.000000
14.360000	24.000000
14.380000	18.000000
14.400000	19.000000
14.420000	18.000000
14.440000	15.000000
14.460000	18.000000
14.480000	19.000000
14.500000	18.000000
14.520000	17.000000
14.540000	19.000000
14.560000	17.000000
14.580000	25.000000
14.600000	22.000000
14.620000	24.000000
14.640000	18.000000
14.660000	23.000000
14.680000	18.000000
14.700000	25.000000
14.720000	21.000000
14.740000	13.000000
14.760000	19.000000
14.780000	22.000000
14.800000	20.000000
14.820000	17.000000
14.840000	19.000000
14.860000	24.000000
14.880000	13.000000
14.900000	22.000000
14.920000	24.000000
14.940000	17.000000
14.960000	25.000000
14.980000	20.000000
15.000000	27.000000
15.020000	25.000000
15.040000	28.000000
15.060000	14.000000
15.080000	18.000000
15.100000	26.000000
15.120000	19.000000
15.140000	22.000000
15.160000	24.000000
15.180000	19.000000
15.200000	27.000000
15.220000	14.000000
15.240000	20.000000
15.260000	19.000000
15.280000	18.000000
15.300000	23.000000
15.320000	16.000000
15.340000	22.000000
15.360000	24.000000
15.380000	19.000000
15.400000	21.000000
15.420000	18.000000
15.440000	17.000000
15.460000	18.000000
15.480000	28.000000
15.500000	19.000000
15.520000	15.000000
15.540000	20.000000
15.560000	32.000000
15.580000	16.000000
15.600000	15.000000
15.620000	26.000000
15.640000	25.000000
15.660000	23.000000
15.680000	32.000000
15.700000	17.000000
15.720000	26.000000
15.740000	19.000000
15.760000	17.000000
15.780000	29.000000
15.800000	32.000000
15.820000	32.000000
15.840000	31.000000
15.860000	31.000000
15.880000	24.000000
15.900000	20.000000
15.920000	19.000000
15.940000	19.000000
15.960000	31.000000
15.980000	31.000000
16.000000	25.000000
16.020000	25.000000
16.040000	21.000000
16.060000	27.000000
16.080000	28.000000
16.100000	34.000000
16.120000	28.000000
16.140000	33.000000
16.160000	26.000000
16.180000	39.000000
16.200000	34.000000
16.220000	37.000000
16.240000	24.000000
16.260000	23.000000
16.280000	28.000000
16.300000	24.000000
16.320000	22.000000
16.340000	26.000000
16.360000	22.000000
16.380000	21.000000
16.400000	23.000000
16.420000	15.000000
16.440000	22.000000
16.460000	26.000000
16.480000	26.000000
16.500000	18.000000
16.520000	15.000000
16.540000	17.000000
16.560000	31.000000
16.580000	26.000000
16.600000	29.000000
16.620000	17.000000
16.640000	30.000000
16.660000	27.000000
16.680000	13.000000
16.700000	21.000000
16.720000	21.000000
16.740000	17.000000
16.760000	21.000000
16.780000	31.000000
16.800000	17.000000
16.820000	11.000000
16.840000	17.000000
16.860000	22.000000
16.880000	25.000000
16.900000	18.000000
16.920000	23.000000
16.940000	17.000000
16.960000	29.000000
16.980000	28.000000
17.000000	23.000000
17.020000	24.000000
17.040000	24.000000
17.060000	12.000000
17.080000	21.000000
17.100000	26.000000
17.120000	23.000000
17.140000	27.000000
17.160000	24.000000
17.180000	21.000000
17.200000	21.000000
17.220000	25.000000
17.240000	19.000000
17.260000	17.000000
17.280000	18.000000
17.300000	19.000000
17.320000	15.000000
17.340000	14.000000
17.360000	16.000000
17.380000	23.000000
17.400000	21.000000
17.420000	16.000000
17.440000	24.000000
17.460000	19.000000
17.480000	22.000000
17.500000	26.000000
17.520000	32.000000
17.540000	24.000000
17.560000	22.000000
17.580000	22.000000
17.600000	23.000000
17.620000	26.000000
17.640000	22.000000
17.660000	26.000000
17.680000	14.000000
17.700000	19.000000
17.720000	25.000000
17.740000	28.000000
17.760000	20.000000
17.780000	18.000000
17.800000	25.000000
17.820000	16.000000
17.840000	20.000000
17.860000	24.000000
17.880000	10.000000
17.900000	22.000000
17.920000	22.000000
17.940000	29.000000
17.960000	25.000000
17.980000	18.000000
18.000000	17.000000
18.020000	29.000000
18.040000	26.000000
18.060000	14.000000
18.080000	16.000000
18.100000	15.000000
18.120000	23.000000
18.140000	22.000000
18.160000	17.000000
18.180000	17.000000
18.200000	22.000000
18.220000	13.000000
18.240000	22.000000
18.260000	20.000000
18.280000	24.000000
18.300000	21.000000
18.320000	22.000000
18.340000	23.000000
18.360000	19.000000
18.380000	26.000000
18.400000	15.000000
18.420000	18.000000
18.440000	19.000000
18.460000	28.000000
18.480000	15.000000
18.500000	23.000000
18.520000	28.000000
18.540000	22.000000
18.560000	21.000000
18.580000	12.000000
18.600000	20.000000
18.620000	20.000000
18.640000	21.000000
18.660000	12.000000
18.680000	20.000000
18.700000	21.000000
18.720000	16.000000
18.740000	12.000000
18.760000	24.000000
18.780000	33.000000
18.800000	25.000000
18.820000	24.000000
18.840000	16.000000
18.860000	22.000000
18.880000	13.000000
18.900000	12.000000
18.920000	19.000000
18.940000	17.000000
18.960000	27.000000
18.980000	20.000000
19.000000	21.000000
19.020000	21.000000
19.040000	15.000000
19.060000	22.000000
19.080000	22.000000
19.100000	22.000000
19.120000	15.000000
19.140000	19.000000
19.160000	18.000000
19.180000	15.000000
19.200000	21.000000
19.220000	22.000000
19.240000	21.000000
19.260000	25.000000
19.280000	11.000000
19.300000	10.000000
19.320000	29.000000
19.340000	16.000000
19.360000	20.000000
19.380000	15.000000
19.400000	24.000000
19.420000	18.000000
19.440000	18.000000
19.460000	20.000000
19.480000	19.000000
19.500000	20.000000
19.520000	23.000000
19.540000	22.000000
19.560000	14.000000
19.580000	20.000000
19.600000	21.000000
19.620000	16.000000
19.640000	34.000000
19.660000	20.000000
19.680000	19.000000
19.700000	14.000000
19.720000	19.000000
19.740000	22.000000
19.760000	22.000000
19.780000	15.000000
19.800000	27.000000
19.820000	26.000000
19.840000	17.000000
19.860000	21.000000
19.880000	24.000000
19.900000	24.000000
19.920000	18.000000
19.940000	34.000000
19.960000	11.000000
19.980000	25.000000
20.000000	17.000000
20.020000	15.000000
20.040000	26.000000
20.060000	13.000000
20.080000	11.000000
20.100000	15.000000
20.120000	26.000000
20.140000	19.000000
20.160000	23.000000
20.180000	16.000000
20.200000	15.000000
20.220000	21.000000
20.240000	18.000000
20.260000	16.000000
20.280000	20.000000
20.300000	17.000000
20.320000	24.000000
20.340000	21.000000
20.360000	25.000000
20.380000	17.000000
20.400000	28.000000
20.420000	21.000000
20.440000	28.000000
20.460000	32.000000
20.480000	32.000000
20.500000	25.000000
20.520000	39.000000
20.540000	34.000000
20.560000	31.000000
20.580000	52.000000
20.600000	39.000000
20.620000	54.000000
20.640000	45.000000
20.660000	45.000000
20.680000	70.000000
20.700000	78.000000
20.720000	140.000000
20.740000	204.000000
20.760000	385.000000
20.780000	737.000000
20.800000	1171.000000
20.820000	2160.000000
20.840000	2597.000000
20.860000	1485.000000
20.880000	1256.000000
20.900000	924.000000
20.920000	334.000000
20.940000	133.000000
20.960000	94.000000
20.980000	60.000000
21.000000	63.000000
21.020000	56.000000
21.040000	61.000000
21.060000	54.000000
21.080000	46.000000
21.100000	50.000000
21.120000	37.000000
21.140000	33.000000
21.160000	39.000000
21.180000	33.000000
21.200000	28.000000
21.220000	21.000000
21.240000	18.000000
21.260000	12.000000
21.280000	17.000000
21.300000	31.000000
21.320000	24.000000
21.340000	20.000000
21.360000	22.000000
21.380000	22.000000
21.400000	24.000000
21.420000	25.000000
21.440000	15.000000
21.460000	32.000000
21.480000	25.000000
21.500000	18.000000
21.520000	19.000000
21.540000	21.000000
21.560000	32.000000
21.580000	20.000000
21.600000	20.000000
21.620000	18.000000
21.640000	13.000000
21.660000	25.000000
21.680000	25.000000
21.700000	24.000000
21.720000	15.000000
21.740000	23.000000
21.760000	18.000000
21.780000	16.000000
21.800000	14.000000
21.820000	16.000000
21.840000	22.000000
21.860000	15.000000
21.880000	16.000000
21.900000	18.000000
21.920000	23.000000
21.940000	23.000000
21.960000	20.000000
21.980000	19.000000
22.000000	31.000000
22.020000	27.000000
22.040000	18.000000
22.060000	17.000000
22.080000	14.000000
22.100000	11.000000
22.120000	27.000000
22.140000	23.000000
22.160000	22.000000
22.180000	24.000000
22.200000	12.000000
22.220000	23.000000
22.240000	26.000000
22.260000	18.000000
22.280000	26.000000
22.300000	28.000000
22.320000	23.000000
22.340000	19.000000
22.360000	30.000000
22.380000	22.000000
22.400000	27.000000
22.420000	14.000000
22.440000	24.000000
22.460000	18.000000
22.480000	20.000000
22.500000	24.000000
22.520000	30.000000
22.540000	31.000000
22.560000	20.000000
22.580000	35.000000
22.600000	22.000000
22.620000	21.000000
22.640000	35.000000
22.660000	17.000000
22.680000	29.000000
22.700000	20.000000
22.720000	18.000000
22.740000	19.000000
22.760000	30.000000
22.780000	18.000000
22.800000	21.000000
22.820000	27.000000
22.840000	18.000000
22.860000	21.000000
22.880000	21.000000
22.900000	27.000000
22.920000	27.000000
22.940000	23.000000
22.960000	22.000000
22.980000	27.000000
23.000000	10.000000
23.020000	29.000000
23.040000	32.000000
23.060000	29.000000
23.080000	19.000000
23.100000	20.000000
23.120000	19.000000
23.140000	21.000000
23.160000	29.000000
23.180000	25.000000
23.200000	24.000000
23.220000	17.000000
23.240000	30.000000
23.260000	22.000000
23.280000	26.000000
23.300000	23.000000
23.320000	24.000000
23.340000	34.000000
23.360000	24.000000
23.380000	24.000000
23.400000	12.000000
23.420000	24.000000
23.440000	31.000000
23.460000	29.000000
23.480000	26.000000
23.500000	25.000000
23.520000	30.000000
23.540000	35.000000
23.560000	27.000000
23.580000	26.000000
23.600000	27.000000
23.620000	37.000000
23.640000	27.000000
23.660000	29.000000
23.680000	20.000000
23.700000	31.000000
23.720000	35.000000
23.740000	21.000000
23.760000	20.000000
23.780000	26.000000
23.800000	17.000000
23.820000	23.000000
23.840000	20.000000
23.860000	22.000000
23.880000	19.000000
23.900000	14.000000
23.920000	24.000000
23.940000	22.000000
23.960000	21.000000
23.980000	36.000000
24.000000	24.000000
24.020000	30.000000
24.040000	29.000000
24.060000	31.000000
24.080000	47.000000
24.100000	69.000000
24.120000	101.000000
24.140000	98.000000
24.160000	88.000000
24.180000	61.000000
24.200000	67.000000
24.220000	56.000000
24.240000	43.000000
24.260000	47.000000
24.280000	37.000000
24.300000	32.000000
24.320000	35.000000
24.340000	45.000000
24.360000	28.000000
24.380000	42.000000
24.400000	31.000000
24.420000	32.000000
24.440000	42.000000
24.460000	31.000000
24.480000	24.000000
24.500000	48.000000
24.520000	26.000000
24.540000	32.000000
24.560000	32.000000
24.580000	29.000000
24.600000	37.000000
24.620000	24.000000
24.640000	30.000000
24.660000	30.000000
24.680000	29.000000
24.700000	33.000000
24.720000	39.000000
24.740000	24.000000
24.760000	25.000000
24.780000	27.000000
24.800000	25.000000
24.820000	22.000000
24.840000	24.000000
24.860000	32.000000
24.880000	31.000000
24.900000	31.000000
24.920000	34.000000
24.940000	25.000000
24.960000	29.000000
24.980000	24.000000
25.000000	20.000000
25.020000	24.000000
25.040000	28.000000
25.060000	35.000000
25.080000	26.000000
25.100000	23.000000
25.120000	18.000000
25.140000	23.000000
25.160000	26.000000
25.180000	27.000000
25.200000	35.000000
25.220000	39.000000
25.240000	35.000000
25.260000	38.000000
25.280000	34.000000
25.300000	33.000000
25.320000	48.000000
25.340000	35.000000
25.360000	38.000000
25.380000	33.000000
25.400000	30.000000
25.420000	30.000000
25.440000	34.000000
25.460000	27.000000
25.480000	33.000000
25.500000	35.000000
25.520000	38.000000
25.540000	33.000000
25.560000	32.000000
25.580000	32.000000
25.600000	33.000000
25.620000	35.000000
25.640000	30.000000
25.660000	29.000000
25.680000	24.000000
25.700000	32.000000
25.720000	35.000000
25.740000	32.000000
25.760000	22.000000
25.780000	40.000000
25.800000	28.000000
25.820000	42.000000
25.840000	41.000000
25.860000	40.000000
25.880000	33.000000
25.900000	35.000000
25.920000	34.000000
25.940000	31.000000
25.960000	26.000000
25.980000	31.000000
26.000000	35.000000
26.020000	43.000000
26.040000	46.000000
26.060000	33.000000
26.080000	56.000000
26.100000	43.000000
26.120000	51.000000
26.140000	44.000000
26.160000	60.000000
26.180000	57.000000
26.200000	62.000000
26.220000	68.000000
26.240000	93.000000
26.260000	89.000000
26.280000	97.000000
26.300000	115.000000
26.320000	158.000000
26.340000	158.000000
26.360000	192.000000
26.380000	236.000000
26.400000	235.000000
26.420000	227.000000
26.440000	289.000000
26.460000	334.000000
26.480000	382.000000
26.500000	557.000000
26.520000	799.000000
26.540000	1443.000000
26.560000	2896.000000
26.580000	6343.000000
26.600000	12017.000000
26.620000	13098.000000
26.640000	7172.000000
26.660000	5847.000000
26.680000	6723.000000
26.700000	4021.000000
26.720000	1254.000000
26.740000	582.000000
26.760000	338.000000
26.780000	278.000000
26.800000	232.000000
26.820000	191.000000
26.840000	180.000000
26.860000	178.000000
26.880000	157.000000
26.900000	153.000000
26.920000	99.000000
26.940000	101.000000
26.960000	77.000000
26.980000	78.000000
27.000000	75.000000
27.020000	73.000000
27.040000	45.000000
27.060000	54.000000
27.080000	58.000000
27.100000	44.000000
27.120000	44.000000
27.140000	49.000000
27.160000	49.000000
27.180000	44.000000
27.200000	48.000000
27.220000	47.000000
27.240000	45.000000
27.260000	30.000000
27.280000	45.000000
27.300000	44.000000
27.320000	45.000000
27.340000	49.000000
27.360000	36.000000
27.380000	49.000000
27.400000	47.000000
27.420000	47.000000
27.440000	50.000000
27.460000	60.000000
27.480000	53.000000
27.500000	54.000000
27.520000	49.000000
27.540000	44.000000
27.560000	42.000000
27.580000	43.000000
27.600000	36.000000
27.620000	48.000000
27.640000	47.000000
27.660000	54.000000
27.680000	35.000000
27.700000	40.000000
27.720000	44.000000
27.740000	39.000000
27.760000	38.000000
27.780000	44.000000
27.800000	31.000000
27.820000	39.000000
27.840000	47.000000
27.860000	50.000000
27.880000	41.000000
27.900000	48.000000
27.920000	52.000000
27.940000	50.000000
27.960000	66.000000
27.980000	37.000000
28.000000	45.000000
28.020000	32.000000
28.040000	38.000000
28.060000	39.000000
28.080000	48.000000
28.100000	56.000000
28.120000	39.000000
28.140000	39.000000
28.160000	43.000000
28.180000	50.000000
28.200000	36.000000
28.220000	45.000000
28.240000	55.000000
28.260000	46.000000
28.280000	48.000000
28.300000	49.000000
28.320000	36.000000
28.340000	51.000000
28.360000	36.000000
28.380000	37.000000
28.400000	41.000000
28.420000	54.000000
28.440000	37.000000
28.460000	45.000000
28.480000	45.000000
28.500000	62.000000
28.520000	55.000000
28.540000	43.000000
28.560000	50.000000
28.580000	51.000000
28.600000	63.000000
28.620000	57.000000
28.640000	42.000000
28.660000	53.000000
28.680000	53.000000
28.700000	63.000000
28.720000	66.000000
28.740000	55.000000
28.760000	79.000000
28.780000	68.000000
28.800000	70.000000
28.820000	93.000000
28.840000	101.000000
28.860000	108.000000
28.880000	110.000000
28.900000	126.000000
28.920000	141.000000
28.940000	126.000000
28.960000	120.000000
28.980000	113.000000
29.000000	115.000000
29.020000	74.000000
29.040000	70.000000
29.060000	81.000000
29.080000	68.000000
29.100000	80.000000
29.120000	68.000000
29.140000	69.000000
29.160000	69.000000
29.180000	63.000000
29.200000	72.000000
29.220000	70.000000
29.240000	71.000000
29.260000	77.000000
29.280000	76.000000
29.300000	84.000000
29.320000	79.000000
29.340000	80.000000
29.360000	70.000000
29.380000	109.000000
29.400000	85.000000
29.420000	89.000000
29.440000	84.000000
29.460000	66.000000
29.480000	77.000000
29.500000	70.000000
29.520000	76.000000
29.540000	64.000000
29.560000	72.000000
29.580000	85.000000
29.600000	65.000000
29.620000	45.000000
29.640000	74.000000
29.660000	70.000000
29.680000	61.000000
29.700000	66.000000
29.720000	64.000000
29.740000	73.000000
29.760000	86.000000
29.780000	64.000000
29.800000	66.000000
29.820000	85.000000
29.840000	71.000000
29.860000	82.000000
29.880000	63.000000
29.900000	81.000000
29.920000	69.000000
29.940000	83.000000
29.960000	82.000000
29.980000	96.000000
30.000000	88.000000
30.020000	92.000000
30.040000	81.000000
30.060000	68.000000
30.080000	89.000000
30.100000	70.000000
30.120000	85.000000
30.140000	73.000000
30.160000	74.000000
30.180000	63.000000
30.200000	65.000000
30.220000	62.000000
30.240000	54.000000
30.260000	61.000000
30.280000	54.000000
30.300000	69.000000
30.320000	53.000000
30.340000	59.000000
30.360000	53.000000
30.380000	52.000000
30.400000	50.000000
30.420000	46.000000
30.440000	31.000000
30.460000	46.000000
30.480000	37.000000
30.500000	42.000000
30.520000	44.000000
30.540000	35.000000
30.560000	57.000000
30.580000	56.000000
30.600000	41.000000
30.620000	24.000000
30.640000	43.000000
30.660000	51.000000
30.680000	54.000000
30.700000	44.000000
30.720000	32.000000
30.740000	40.000000
30.760000	45.000000
30.780000	40.000000
30.800000	49.000000
30.820000	38.000000
30.840000	49.000000
30.860000	48.000000
30.880000	54.000000
30.900000	50.000000
30.920000	35.000000
30.940000	37.000000
30.960000	42.000000
30.980000	49.000000
31.000000	37.000000
31.020000	50.000000
31.040000	38.000000
31.060000	31.000000
31.080000	38.000000
31.100000	38.000000
31.120000	46.000000
31.140000	41.000000
31.160000	45.000000
31.180000	31.000000
31.200000	39.000000
31.220000	35.000000
31.240000	24.000000
31.260000	39.000000
31.280000	44.000000
31.300000	52.000000
31.320000	43.000000
31.340000	38.000000
31.360000	33.000000
31.380000	40.000000
31.400000	41.000000
31.420000	43.000000
31.440000	38.000000
31.460000	41.000000
31.480000	34.000000
31.500000	41.000000
31.520000	42.000000
31.540000	39.000000
31.560000	33.000000
31.580000	46.000000
31.600000	42.000000
31.620000	56.000000
31.640000	44.000000
31.660000	62.000000
31.680000	50.000000
31.700000	32.000000
31.720000	73.000000
31.740000	56.000000
31.760000	52.000000
31.780000	53.000000
31.800000	57.000000
31.820000	60.000000
31.840000	63.000000
31.860000	48.000000
31.880000	52.000000
31.900000	55.000000
31.920000	43.000000
31.940000	57.000000
31.960000	39.000000
31.980000	51.000000
32.000000	48.000000
32.020000	44.000000
32.040000	41.000000
32.060000	48.000000
32.080000	41.000000
32.100000	40.000000
32.120000	45.000000
32.140000	48.000000
32.160000	35.000000
32.180000	44.000000
32.200000	40.000000
32.220000	40.000000
32.240000	37.000000
32.260000	31.000000
32.280000	34.000000
32.300000	41.000000
32.320000	21.000000
32.340000	43.000000
32.360000	42.000000
32.380000	24.000000
32.400000	27.000000
32.420000	33.000000
32.440000	33.000000
32.460000	41.000000
32.480000	22.000000
32.500000	39.000000
32.520000	33.000000
32.540000	44.000000
32.560000	39.000000
32.580000	34.000000
32.600000	30.000000
32.620000	30.000000
32.640000	32.000000
32.660000	40.000000
32.680000	28.000000
32.700000	28.000000
32.720000	23.000000
32.740000	32.000000
32.760000	39.000000
32.780000	24.000000
32.800000	39.000000
32.820000	30.000000
32.840000	32.000000
32.860000	19.000000
32.880000	35.000000
32.900000	29.000000
32.920000	37.000000
32.940000	26.000000
32.960000	33.000000
32.980000	29.000000
33.000000	38.000000
33.020000	30.000000
33.040000	29.000000
33.060000	28.000000
33.080000	29.000000
33.100000	28.000000
33.120000	31.000000
33.140000	26.000000
33.160000	29.000000
33.180000	26.000000
33.200000	30.000000
33.220000	24.000000
33.240000	32.000000
33.260000	24.000000
33.280000	27.000000
33.300000	26.000000
33.320000	38.000000
33.340000	24.000000
33.360000	21.000000
33.380000	30.000000
33.400000	23.000000
33.420000	24.000000
33.440000	22.000000
33.460000	30.000000
33.480000	22.000000
33.500000	35.000000
33.520000	20.000000
33.540000	26.000000
33.560000	22.000000
33.580000	31.000000
33.600000	30.000000
33.620000	27.000000
33.640000	31.000000
33.660000	18.000000
33.680000	29.000000
33.700000	29.000000
33.720000	32.000000
33.740000	21.000000
33.760000	29.000000
33.780000	21.000000
33.800000	24.000000
33.820000	26.000000
33.840000	16.000000
33.860000	28.000000
33.880000	36.000000
33.900000	29.000000
33.920000	27.000000
33.940000	38.000000
33.960000	38.000000
33.980000	24.000000
34.000000	26.000000
34.020000	28.000000
34.040000	33.000000
34.060000	26.000000
34.080000	27.000000
34.100000	28.000000
34.120000	36.000000
34.140000	33.000000
34.160000	35.000000
34.180000	25.000000
34.200000	33.000000
34.220000	35.000000
34.240000	27.000000
34.260000	21.000000
34.280000	20.000000
34.300000	22.000000
34.320000	27.000000
34.340000	29.000000
34.360000	28.000000
34.380000	23.000000
34.400000	30.000000
34.420000	25.000000
34.440000	28.000000
34.460000	24.000000
34.480000	18.000000
34.500000	28.000000
34.520000	34.000000
34.540000	34.000000
34.560000	35.000000
34.580000	31.000000
34.600000	32.000000
34.620000	30.000000
34.640000	23.000000
34.660000	23.000000
34.680000	23.000000
34.700000	24.000000
34.720000	22.000000
34.740000	15.000000
34.760000	25.000000
34.780000	26.000000
34.800000	13.000000
34.820000	31.000000
34.840000	29.000000
34.860000	22.000000
34.880000	27.000000
34.900000	30.000000
34.920000	30.000000
34.940000	29.000000
34.960000	27.000000
34.980000	25.000000
35.000000	35.000000
35.020000	20.000000
35.040000	22.000000
35.060000	27.000000
35.080000	30.000000
35.100000	33.000000
35.120000	27.000000
35.140000	23.000000
35.160000	32.000000
35.180000	30.000000
35.200000	21.000000
35.220000	23.000000
35.240000	21.000000
35.260000	22.000000
35.280000	19.000000
35.300000	32.000000
35.320000	19.000000
35.340000	29.000000
35.360000	24.000000
35.380000	23.000000
35.400000	32.000000
35.420000	35.000000
35.440000	21.000000
35.460000	28.000000
35.480000	30.000000
35.500000	31.000000
35.520000	40.000000
35.540000	23.000000
35.560000	26.000000
35.580000	28.000000
35.600000	30.000000
35.620000	19.000000
35.640000	27.000000
35.660000	40.000000
35.680000	23.000000
35.700000	25.000000
35.720000	26.000000
35.740000	25.000000
35.760000	30.000000
35.780000	31.000000
35.800000	18.000000
35.820000	30.000000
35.840000	17.000000
35.860000	31.000000
35.880000	25.000000
35.900000	16.000000
35.920000	23.000000
35.940000	23.000000
35.960000	23.000000
35.980000	32.000000
36.000000	35.000000
36.020000	28.000000
36.040000	26.000000
36.060000	23.000000
36.080000	20.000000
36.100000	36.000000
36.120000	17.000000
36.140000	25.000000
36.160000	30.000000
36.180000	27.000000
36.200000	26.000000
36.220000	25.000000
36.240000	29.000000
36.260000	31.000000
36.280000	28.000000
36.300000	32.000000
36.320000	37.000000
36.340000	45.000000
36.360000	52.000000
36.380000	61.000000
36.400000	54.000000
36.420000	66.000000
36.440000	110.000000
36.460000	216.000000
36.480000	427.000000
36.500000	660.000000
36.520000	639.000000
36.540000	340.000000
36.560000	244.000000
36.580000	304.000000
36.600000	346.000000
36.620000	274.000000
36.640000	149.000000
36.660000	65.000000
36.680000	54.000000
36.700000	37.000000
36.720000	48.000000
36.740000	46.000000
36.760000	33.000000
36.780000	25.000000
36.800000	28.000000
36.820000	34.000000
36.840000	31.000000
36.860000	33.000000
36.880000	29.000000
36.900000	45.000000
36.920000	32.000000
36.940000	18.000000
36.960000	28.000000
36.980000	33.000000
37.000000	30.000000
37.020000	23.000000
37.040000	30.000000
37.060000	40.000000
37.080000	30.000000
37.100000	29.000000
37.120000	24.000000
37.140000	18.000000
37.160000	27.000000
37.180000	21.000000
37.200000	28.000000
37.220000	28.000000
37.240000	32.000000
37.260000	25.000000
37.280000	30.000000
37.300000	24.000000
37.320000	23.000000
37.340000	21.000000
37.360000	20.000000
37.380000	27.000000
37.400000	22.000000
37.420000	22.000000
37.440000	18.000000
37.460000	25.000000
37.480000	18.000000
37.500000	24.000000
37.520000	26.000000
37.540000	26.000000
37.560000	28.000000
37.580000	21.000000
37.600000	30.000000
37.620000	27.000000
37.640000	24.000000
37.660000	25.000000
37.680000	33.000000
37.700000	23.000000
37.720000	21.000000
37.740000	26.000000
37.760000	23.000000
37.780000	17.000000
37.800000	21.000000
37.820000	16.000000
37.840000	18.000000
37.860000	17.000000
37.880000	29.000000
37.900000	29.000000
37.920000	30.000000
37.940000	18.000000
37.960000	28.000000
37.980000	20.000000
38.000000	25.000000
38.020000	14.000000
38.040000	27.000000
38.060000	18.000000
38.080000	23.000000
38.100000	15.000000
38.120000	28.000000
38.140000	18.000000
38.160000	20.000000
38.180000	26.000000
38.200000	16.000000
38.220000	21.000000
38.240000	32.000000
38.260000	17.000000
38.280000	17.000000
38.300000	23.000000
38.320000	19.000000
38.340000	31.000000
38.360000	13.000000
38.380000	22.000000
38.400000	25.000000
38.420000	24.000000
38.440000	25.000000
38.460000	24.000000
38.480000	18.000000
38.500000	27.000000
38.520000	24.000000
38.540000	25.000000
38.560000	20.000000
38.580000	27.000000
38.600000	18.000000
38.620000	35.000000
38.640000	16.000000
38.660000	37.000000
38.680000	23.000000
38.700000	19.000000
38.720000	18.000000
38.740000	26.000000
38.760000	17.000000
38.780000	15.000000
38.800000	25.000000
38.820000	24.000000
38.840000	12.000000
38.860000	25.000000
38.880000	32.000000
38.900000	17.000000
38.920000	23.000000
38.940000	18.000000
38.960000	18.000000
38.980000	29.000000
39.000000	21.000000
39.020000	22.000000
39.040000	30.000000
39.060000	38.000000
39.080000	17.000000
39.100000	22.000000
39.120000	27.000000
39.140000	29.000000
39.160000	24.000000
39.180000	32.000000
39.200000	34.000000
39.220000	41.000000
39.240000	35.000000
39.260000	31.000000
39.280000	29.000000
39.300000	44.000000
39.320000	49.000000
39.340000	75.000000
39.360000	133.000000
39.380000	265.000000
39.400000	435.000000
39.420000	431.000000
39.440000	365.000000
39.460000	285.000000
39.480000	205.000000
39.500000	241.000000
39.520000	244.000000
39.540000	215.000000
39.560000	147.000000
39.580000	66.000000
39.600000	50.000000
39.620000	40.000000
39.640000	38.000000
39.660000	37.000000
39.680000	44.000000
39.700000	38.000000
39.720000	28.000000
39.740000	30.000000
39.760000	32.000000
39.780000	29.000000
39.800000	33.000000
39.820000	24.000000
39.840000	25.000000
39.860000	27.000000
39.880000	29.000000
39.900000	28.000000
39.920000	34.000000
39.940000	37.000000
39.960000	28.000000
39.980000	35.000000
40.000000	30.000000
40.020000	33.000000
40.040000	35.000000
40.060000	26.000000
40.080000	34.000000
40.100000	35.000000
40.120000	28.000000
40.140000	43.000000
40.160000	41.000000
40.180000	47.000000
40.200000	71.000000
40.220000	132.000000
40.240000	234.000000
40.260000	319.000000
40.280000	225.000000
40.300000	124.000000
40.320000	106.000000
40.340000	131.000000
40.360000	141.000000
40.380000	114.000000
40.400000	68.000000
40.420000	46.000000
40.440000	44.000000
40.460000	35.000000
40.480000	24.000000
40.500000	29.000000
40.520000	29.000000
40.540000	21.000000
40.560000	16.000000
40.580000	21.000000
40.600000	20.000000
40.620000	26.000000
40.640000	23.000000
40.660000	17.000000
40.680000	20.000000
40.700000	16.000000
40.720000	37.000000
40.740000	21.000000
40.760000	19.000000
40.780000	20.000000
40.800000	21.000000
40.820000	8.000000
40.840000	23.000000
40.860000	22.000000
40.880000	22.000000
40.900000	18.000000
40.920000	21.000000
40.940000	17.000000
40.960000	22.000000
40.980000	18.000000
41.000000	17.000000
41.020000	22.000000
41.040000	21.000000
41.060000	26.000000
41.080000	18.000000
41.100000	19.000000
41.120000	15.000000
41.140000	24.000000
41.160000	20.000000
41.180000	21.000000
41.200000	24.000000
41.220000	10.000000
41.240000	23.000000
41.260000	19.000000
41.280000	18.000000
41.300000	23.000000
41.320000	25.000000
41.340000	23.000000
41.360000	16.000000
41.380000	18.000000
41.400000	16.000000
41.420000	20.000000
41.440000	22.000000
41.460000	24.000000
41.480000	27.000000
41.500000	31.000000
41.520000	20.000000
41.540000	19.000000
41.560000	28.000000
41.580000	13.000000
41.600000	19.000000
41.620000	20.000000
41.640000	23.000000
41.660000	23.000000
41.680000	24.000000
41.700000	24.000000
41.720000	17.000000
41.740000	32.000000
41.760000	26.000000
41.780000	16.000000
41.800000	28.000000
41.820000	19.000000
41.840000	36.000000
41.860000	25.000000
41.880000	21.000000
41.900000	24.000000
41.920000	27.000000
41.940000	24.000000
41.960000	26.000000
41.980000	26.000000
42.000000	31.000000
42.020000	20.000000
42.040000	21.000000
42.060000	30.000000
42.080000	40.000000
42.100000	23.000000
42.120000	41.000000
42.140000	31.000000
42.160000	35.000000
42.180000	33.000000
42.200000	48.000000
42.220000	53.000000
42.240000	36.000000
42.260000	31.000000
42.280000	42.000000
42.300000	60.000000
42.320000	65.000000
42.340000	93.000000
42.360000	146.000000
42.380000	224.000000
42.400000	278.000000
42.420000	338.000000
42.440000	267.000000
42.460000	163.000000
42.480000	149.000000
42.500000	171.000000
42.520000	209.000000
42.540000	184.000000
42.560000	103.000000
42.580000	52.000000
42.600000	37.000000
42.620000	40.000000
42.640000	34.000000
42.660000	33.000000
42.680000	39.000000
42.700000	31.000000
42.720000	29.000000
42.740000	22.000000
42.760000	29.000000
42.780000	36.000000
42.800000	24.000000
42.820000	24.000000
42.840000	23.000000
42.860000	27.000000
42.880000	23.000000
42.900000	24.000000
42.920000	26.000000
42.940000	24.000000
42.960000	30.000000
42.980000	23.000000
43.000000	18.000000
43.020000	22.000000
43.040000	26.000000
43.060000	17.000000
43.080000	22.000000
43.100000	27.000000
43.120000	25.000000
43.140000	24.000000
43.160000	25.000000
43.180000	26.000000
43.200000	23.000000
43.220000	23.000000
43.240000	21.000000
43.260000	25.000000
43.280000	34.000000
43.300000	31.000000
43.320000	29.000000
43.340000	27.000000
43.360000	22.000000
43.380000	20.000000
43.400000	32.000000
43.420000	33.000000
43.440000	30.000000
43.460000	31.000000
43.480000	32.000000
43.500000	24.000000
43.520000	30.000000
43.540000	13.000000
43.560000	29.000000
43.580000	29.000000
43.600000	33.000000
43.620000	20.000000
43.640000	23.000000
43.660000	22.000000
43.680000	17.000000
43.700000	25.000000
43.720000	28.000000
43.740000	21.000000
43.760000	29.000000
43.780000	26.000000
43.800000	26.000000
43.820000	26.000000
43.840000	35.000000
43.860000	24.000000
43.880000	20.000000
43.900000	23.000000
43.920000	30.000000
43.940000	17.000000
43.960000	17.000000
43.980000	21.000000
44.000000	25.000000
44.020000	24.000000
44.040000	33.000000
44.060000	21.000000
44.080000	32.000000
44.100000	32.000000
44.120000	19.000000
44.140000	22.000000
44.160000	33.000000
44.180000	24.000000
44.200000	24.000000
44.220000	24.000000
44.240000	26.000000
44.260000	23.000000
44.280000	28.000000
44.300000	25.000000
44.320000	25.000000
44.340000	25.000000
44.360000	20.000000
44.380000	29.000000
44.400000	27.000000
44.420000	32.000000
44.440000	22.000000
44.460000	31.000000
44.480000	23.000000
44.500000	24.000000
44.520000	25.000000
44.540000	23.000000
44.560000	31.000000
44.580000	32.000000
44.600000	29.000000
44.620000	30.000000
44.640000	19.000000
44.660000	24.000000
44.680000	34.000000
44.700000	20.000000
44.720000	22.000000
44.740000	29.000000
44.760000	21.000000
44.780000	27.000000
44.800000	27.000000
44.820000	29.000000
44.840000	29.000000
44.860000	21.000000
44.880000	24.000000
44.900000	22.000000
44.920000	25.000000
44.940000	25.000000
44.960000	22.000000
44.980000	28.000000
45.000000	32.000000
45.020000	26.000000
45.040000	37.000000
45.060000	26.000000
45.080000	22.000000
45.100000	29.000000
45.120000	33.000000
45.140000	26.000000
45.160000	34.000000
45.180000	48.000000
45.200000	29.000000
45.220000	27.000000
45.240000	39.000000
45.260000	34.000000
45.280000	29.000000
45.300000	29.000000
45.320000	39.000000
45.340000	26.000000
45.360000	33.000000
45.380000	35.000000
45.400000	20.000000
45.420000	37.000000
45.440000	26.000000
45.460000	27.000000
45.480000	32.000000
45.500000	28.000000
45.520000	38.000000
45.540000	31.000000
45.560000	36.000000
45.580000	33.000000
45.600000	48.000000
45.620000	43.000000
45.640000	50.000000
45.660000	42.000000
45.680000	89.000000
45.700000	104.000000
45.720000	156.000000
45.740000	241.000000
45.760000	308.000000
45.780000	258.000000
45.800000	152.000000
45.820000	111.000000
45.840000	104.000000
45.860000	141.000000
45.880000	178.000000
45.900000	127.000000
45.920000	91.000000
45.940000	57.000000
45.960000	47.000000
45.980000	42.000000
46.000000	29.000000
46.020000	28.000000
46.040000	24.000000
46.060000	26.000000
46.080000	28.000000
46.100000	32.000000
46.120000	29.000000
46.140000	33.000000
46.160000	28.000000
46.180000	17.000000
46.200000	23.000000
46.220000	25.000000
46.240000	21.000000
46.260000	24.000000
46.280000	28.000000
46.300000	20.000000
46.320000	20.000000
46.340000	25.000000
46.360000	27.000000
46.380000	24.000000
46.400000	22.000000
46.420000	26.000000
46.440000	19.000000
46.460000	13.000000
46.480000	18.000000
46.500000	32.000000
46.520000	31.000000
46.540000	17.000000
46.560000	23.000000
46.580000	20.000000
46.600000	23.000000
46.620000	24.000000
46.640000	21.000000
46.660000	19.000000
46.680000	18.000000
46.700000	16.000000
46.720000	31.000000
46.740000	18.000000
46.760000	21.000000
46.780000	17.000000
46.800000	21.000000
46.820000	20.000000
46.840000	23.000000
46.860000	17.000000
46.880000	12.000000
46.900000	24.000000
46.920000	23.000000
46.940000	22.000000
46.960000	17.000000
46.980000	24.000000
47.000000	24.000000
47.020000	23.000000
47.040000	14.000000
47.060000	22.000000
47.080000	17.000000
47.100000	33.000000
47.120000	16.000000
47.140000	18.000000
47.160000	29.000000
47.180000	28.000000
47.200000	28.000000
47.220000	21.000000
47.240000	25.000000
47.260000	23.000000
47.280000	20.000000
47.300000	21.000000
47.320000	13.000000
47.340000	20.000000
47.360000	17.000000
47.380000	20.000000
47.400000	32.000000
47.420000	28.000000
47.440000	25.000000
47.460000	21.000000
47.480000	25.000000
47.500000	19.000000
47.520000	23.000000
47.540000	18.000000
47.560000	24.000000
47.580000	27.000000
47.600000	25.000000
47.620000	21.000000
47.640000	29.000000
47.660000	19.000000
47.680000	20.000000
47.700000	25.000000
47.720000	14.000000
47.740000	22.000000
47.760000	24.000000
47.780000	26.000000
47.800000	18.000000
47.820000	24.000000
47.840000	28.000000
47.860000	24.000000
47.880000	26.000000
47.900000	25.000000
47.920000	20.000000
47.940000	25.000000
47.960000	19.000000
47.980000	26.000000
48.000000	18.000000
48.020000	27.000000
48.040000	23.000000
48.060000	19.000000
48.080000	20.000000
48.100000	18.000000
48.120000	22.000000
48.140000	29.000000
48.160000	20.000000
48.180000	16.000000
48.200000	17.000000
48.220000	19.000000
48.240000	29.000000
48.260000	25.000000
48.280000	17.000000
48.300000	25.000000
48.320000	27.000000
48.340000	20.000000
48.360000	33.000000
48.380000	19.000000
48.400000	27.000000
48.420000	20.000000
48.440000	17.000000
48.460000	28.000000
48.480000	19.000000
48.500000	26.000000
48.520000	24.000000
48.540000	35.000000
48.560000	23.000000
48.580000	25.000000
48.600000	29.000000
48.620000	27.000000
48.640000	26.000000
48.660000	22.000000
48.680000	28.000000
48.700000	25.000000
48.720000	25.000000
48.740000	21.000000
48.760000	19.000000
48.780000	27.000000
48.800000	18.000000
48.820000	21.000000
48.840000	25.000000
48.860000	25.000000
48.880000	35.000000
48.900000	24.000000
48.920000	27.000000
48.940000	27.000000
48.960000	21.000000
48.980000	21.000000
49.000000	24.000000
49.020000	25.000000
49.040000	20.000000
49.060000	32.000000
49.080000	28.000000
49.100000	27.000000
49.120000	26.000000
49.140000	30.000000
49.160000	21.000000
49.180000	24.000000
49.200000	33.000000
49.220000	28.000000
49.240000	46.000000
49.260000	33.000000
49.280000	45.000000
49.300000	39.000000
49.320000	44.000000
49.340000	45.000000
49.360000	36.000000
49.380000	50.000000
49.400000	42.000000
49.420000	44.000000
49.440000	52.000000
49.460000	58.000000
49.480000	52.000000
49.500000	43.000000
49.520000	54.000000
49.540000	43.000000
49.560000	47.000000
49.580000	54.000000
49.600000	44.000000
49.620000	39.000000
49.640000	38.000000
49.660000	45.000000
49.680000	42.000000
49.700000	61.000000
49.720000	53.000000
49.740000	54.000000
49.760000	57.000000
49.780000	52.000000
49.800000	38.000000
49.820000	54.000000
49.840000	54.000000
49.860000	71.000000
49.880000	65.000000
49.900000	78.000000
49.920000	64.000000
49.940000	74.000000
49.960000	94.000000
49.980000	120.000000
50.000000	173.000000
50.020000	238.000000
50.040000	376.000000
50.060000	673.000000
50.080000	1120.000000
50.100000	1300.000000
50.120000	1247.000000
50.140000	885.000000
50.160000	503.000000
50.180000	383.000000
50.200000	445.000000
50.220000	652.000000
50.240000	660.000000
50.260000	604.000000
50.280000	328.000000
50.300000	170.000000
50.320000	120.000000
50.340000	70.000000
50.360000	72.000000
50.380000	56.000000
50.400000	54.000000
50.420000	51.000000
50.440000	29.000000
50.460000	48.000000
50.480000	48.000000
50.500000	36.000000
50.520000	28.000000
50.540000	42.000000
50.560000	37.000000
50.580000	35.000000
50.600000	36.000000
50.620000	30.000000
50.640000	35.000000
50.660000	18.000000
50.680000	35.000000
50.700000	38.000000
50.720000	36.000000
50.740000	31.000000
50.760000	25.000000
50.780000	19.000000
50.800000	32.000000
50.820000	21.000000
50.840000	20.000000
50.860000	24.000000
50.880000	31.000000
50.900000	24.000000
50.920000	27.000000
50.940000	27.000000
50.960000	25.000000
50.980000	21.000000
51.000000	16.000000
51.020000	22.000000
51.040000	22.000000
51.060000	20.000000
51.080000	25.000000
51.100000	19.000000
51.120000	23.000000
51.140000	28.000000
51.160000	22.000000
51.180000	26.000000
51.200000	23.000000
51.220000	14.000000
51.240000	23.000000
51.260000	23.000000
51.280000	15.000000
51.300000	25.000000
51.320000	21.000000
51.340000	17.000000
51.360000	27.000000
51.380000	24.000000
51.400000	25.000000
51.420000	21.000000
51.440000	26.000000
51.460000	19.000000
51.480000	30.000000
51.500000	17.000000
51.520000	19.000000
51.540000	21.000000
51.560000	16.000000
51.580000	20.000000
51.600000	16.000000
51.620000	23.000000
51.640000	18.000000
51.660000	19.000000
51.680000	26.000000
51.700000	23.000000
51.720000	23.000000
51.740000	16.000000
51.760000	15.000000
51.780000	22.000000
51.800000	22.000000
51.820000	14.000000
51.840000	32.000000
51.860000	26.000000
51.880000	19.000000
51.900000	26.000000
51.920000	14.000000
51.940000	22.000000
51.960000	18.000000
51.980000	22.000000
52.000000	29.000000
52.020000	21.000000
52.040000	24.000000
52.060000	11.000000
52.080000	17.000000
52.100000	14.000000
52.120000	21.000000
52.140000	28.000000
52.160000	19.000000
52.180000	29.000000
52.200000	21.000000
52.220000	27.000000
52.240000	19.000000
52.260000	20.000000
52.280000	16.000000
52.300000	19.000000
52.320000	21.000000
52.340000	29.000000
52.360000	16.000000
52.380000	15.000000
52.400000	19.000000
52.420000	14.000000
52.440000	17.000000
52.460000	17.000000
52.480000	17.000000
52.500000	20.000000
52.520000	12.000000
52.540000	26.000000
52.560000	21.000000
52.580000	25.000000
52.600000	21.000000
52.620000	16.000000
52.640000	24.000000
52.660000	26.000000
52.680000	21.000000
52.700000	26.000000
52.720000	17.000000
52.740000	24.000000
52.760000	21.000000
52.780000	14.000000
52.800000	15.000000
52.820000	27.000000
52.840000	25.000000
52.860000	25.000000
52.880000	17.000000
52.900000	16.000000
52.920000	19.000000
52.940000	18.000000
52.960000	22.000000
52.980000	23.000000
53.000000	25.000000
53.020000	16.000000
53.040000	13.000000
53.060000	18.000000
53.080000	25.000000
53.100000	19.000000
53.120000	19.000000
53.140000	25.000000
53.160000	16.000000
53.180000	21.000000
53.200000	24.000000
53.220000	25.000000
53.240000	21.000000
53.260000	25.000000
53.280000	18.000000
53.300000	17.000000
53.320000	20.000000
53.340000	23.000000
53.360000	16.000000
53.380000	20.000000
53.400000	22.000000
53.420000	15.000000
53.440000	22.000000
53.460000	21.000000
53.480000	25.000000
53.500000	26.000000
53.520000	17.000000
53.540000	11.000000
53.560000	17.000000
53.580000	18.000000
53.600000	19.000000
53.620000	21.000000
53.640000	24.000000
53.660000	17.000000
53.680000	19.000000
53.700000	23.000000
53.720000	21.000000
53.740000	22.000000
53.760000	13.000000
53.780000	14.000000
53.800000	20.000000
53.820000	25.000000
53.840000	21.000000
53.860000	17.000000
53.880000	19.000000
53.900000	18.000000
53.920000	24.000000
53.940000	13.000000
53.960000	17.000000
53.980000	24.000000
54.000000	24.000000
54.020000	16.000000
54.040000	23.000000
54.060000	17.000000
54.080000	20.000000
54.100000	23.000000
54.120000	22.000000
54.140000	18.000000
54.160000	23.000000
54.180000	23.000000
54.200000	31.000000
54.220000	19.000000
54.240000	22.000000
54.260000	29.000000
54.280000	26.000000
54.300000	13.000000
54.320000	12.000000
54.340000	20.000000
54.360000	16.000000
54.380000	19.000000
54.400000	24.000000
54.420000	26.000000
54.440000	26.000000
54.460000	22.000000
54.480000	38.000000
54.500000	16.000000
54.520000	35.000000
54.540000	23.000000
54.560000	22.000000
54.580000	29.000000
54.600000	20.000000
54.620000	33.000000
54.640000	36.000000
54.660000	27.000000
54.680000	41.000000
54.700000	40.000000
54.720000	65.000000
54.740000	79.000000
54.760000	88.000000
54.780000	116.000000
54.800000	171.000000
54.820000	307.000000
54.840000	363.000000
54.860000	267.000000
54.880000	176.000000
54.900000	112.000000
54.920000	109.000000
54.940000	128.000000
54.960000	146.000000
54.980000	159.000000
55.000000	180.000000
55.020000	137.000000
55.040000	79.000000
55.060000	50.000000
55.080000	38.000000
55.100000	35.000000
55.120000	33.000000
55.140000	36.000000
55.160000	26.000000
55.180000	32.000000
55.200000	39.000000
55.220000	47.000000
55.240000	69.000000
55.260000	72.000000
55.280000	102.000000
55.300000	99.000000
55.320000	85.000000
55.340000	46.000000
55.360000	42.000000
55.380000	55.000000
55.400000	41.000000
55.420000	54.000000
55.440000	61.000000
55.460000	62.000000
55.480000	38.000000
55.500000	35.000000
55.520000	30.000000
55.540000	39.000000
55.560000	26.000000
55.580000	26.000000
55.600000	29.000000
55.620000	16.000000
55.640000	28.000000
55.660000	18.000000
55.680000	18.000000
55.700000	23.000000
55.720000	23.000000
55.740000	22.000000
55.760000	24.000000
55.780000	19.000000
55.800000	18.000000
55.820000	21.000000
55.840000	24.000000
55.860000	26.000000
55.880000	24.000000
55.900000	24.000000
55.920000	23.000000
55.940000	17.000000
55.960000	14.000000
55.980000	14.000000
56.000000	21.000000
56.020000	30.000000
56.040000	22.000000
56.060000	29.000000
56.080000	19.000000
56.100000	21.000000
56.120000	15.000000
56.140000	14.000000
56.160000	17.000000
56.180000	22.000000
56.200000	10.000000
56.220000	18.000000
56.240000	23.000000
56.260000	13.000000
56.280000	20.000000
56.300000	17.000000
56.320000	22.000000
56.340000	16.000000
56.360000	20.000000
56.380000	23.000000
56.400000	25.000000
56.420000	26.000000
56.440000	23.000000
56.460000	17.000000
56.480000	21.000000
56.500000	21.000000
56.520000	16.000000
56.540000	33.000000
56.560000	25.000000
56.580000	25.000000
56.600000	19.000000
56.620000	18.000000
56.640000	16.000000
56.660000	27.000000
56.680000	20.000000
56.700000	20.000000
56.720000	25.000000
56.740000	21.000000
56.760000	21.000000
56.780000	25.000000
56.800000	31.000000
56.820000	13.000000
56.840000	25.000000
56.860000	23.000000
56.880000	28.000000
56.900000	18.000000
56.920000	22.000000
56.940000	18.000000
56.960000	18.000000
56.980000	14.000000
57.000000	13.000000
57.020000	20.000000
57.040000	14.000000
57.060000	14.000000
57.080000	16.000000
57.100000	17.000000
57.120000	26.000000
57.140000	16.000000
57.160000	22.000000
57.180000	43.000000
57.200000	26.000000
57.220000	30.000000
57.240000	21.000000
57.260000	20.000000
57.280000	20.000000
57.300000	14.000000
57.320000	26.000000
57.340000	16.000000
57.360000	26.000000
57.380000	28.000000
57.400000	21.000000
57.420000	18.000000
57.440000	28.000000
57.460000	26.000000
57.480000	26.000000
57.500000	21.000000
57.520000	20.000000
57.540000	16.000000
57.560000	19.000000
57.580000	18.000000
57.600000	21.000000
57.620000	19.000000
57.640000	28.000000
57.660000	21.000000
57.680000	13.000000
57.700000	27.000000
57.720000	17.000000
57.740000	22.000000
57.760000	17.000000
57.780000	17.000000
57.800000	19.000000
57.820000	25.000000
57.840000	18.000000
57.860000	13.000000
57.880000	11.000000
57.900000	17.000000
57.920000	16.000000
57.940000	29.000000
57.960000	16.000000
57.980000	18.000000
58.000000	16.000000
58.020000	20.000000
58.040000	20.000000
58.060000	11.000000
58.080000	21.000000
58.100000	14.000000
58.120000	14.000000
58.140000	11.000000
58.160000	19.000000
58.180000	15.000000
58.200000	21.000000
58.220000	17.000000
58.240000	19.000000
58.260000	15.000000
58.280000	20.000000
58.300000	25.000000
58.320000	19.000000
58.340000	31.000000
58.360000	12.000000
58.380000	25.000000
58.400000	20.000000
58.420000	12.000000
58.440000	21.000000
58.460000	24.000000
58.480000	29.000000
58.500000	19.000000
58.520000	17.000000
58.540000	23.000000
58.560000	19.000000
58.580000	26.000000
58.600000	15.000000
58.620000	17.000000
58.640000	17.000000
58.660000	21.000000
58.680000	23.000000
58.700000	19.000000
58.720000	18.000000
58.740000	22.000000
58.760000	27.000000
58.780000	21.000000
58.800000	26.000000
58.820000	20.000000
58.840000	23.000000
58.860000	20.000000
58.880000	25.000000
58.900000	22.000000
58.920000	24.000000
58.940000	16.000000
58.960000	15.000000
58.980000	20.000000
59.000000	19.000000
59.020000	20.000000
59.040000	23.000000
59.060000	16.000000
59.080000	30.000000
59.100000	16.000000
59.120000	25.000000
59.140000	17.000000
59.160000	19.000000
59.180000	19.000000
59.200000	21.000000
59.220000	29.000000
59.240000	15.000000
59.260000	20.000000
59.280000	23.000000
59.300000	27.000000
59.320000	15.000000
59.340000	24.000000
59.360000	18.000000
59.380000	19.000000
59.400000	21.000000
59.420000	24.000000
59.440000	18.000000
59.460000	24.000000
59.480000	29.000000
59.500000	17.000000
59.520000	27.000000
59.540000	33.000000
59.560000	29.000000
59.580000	21.000000
59.600000	35.000000
59.620000	42.000000
59.640000	51.000000
59.660000	44.000000
59.680000	56.000000
59.700000	48.000000
59.720000	46.000000
59.740000	61.000000
59.760000	64.000000
59.780000	88.000000
59.800000	101.000000
59.820000	149.000000
59.840000	203.000000
59.860000	276.000000
59.880000	469.000000
59.900000	723.000000
59.920000	1130.000000
59.940000	1224.000000
59.960000	804.000000
59.980000	403.000000
60.000000	254.000000
60.020000	234.000000
60.040000	265.000000
60.060000	347.000000
60.080000	582.000000
60.100000	595.000000
60.120000	405.000000
60.140000	260.000000
60.160000	124.000000
60.180000	99.000000
60.200000	49.000000
60.220000	62.000000
60.240000	47.000000
60.260000	41.000000
60.280000	35.000000
60.300000	44.000000
60.320000	27.000000
60.340000	37.000000
60.360000	19.000000
60.380000	30.000000
60.400000	28.000000
60.420000	22.000000
60.440000	22.000000
60.460000	23.000000
60.480000	19.000000
60.500000	26.000000
60.520000	19.000000
60.540000	22.000000
60.560000	22.000000
60.580000	25.000000
60.600000	23.000000
60.620000	21.000000
60.640000	19.000000
60.660000	19.000000
60.680000	26.000000
60.700000	18.000000
60.720000	17.000000
60.740000	20.000000
60.760000	23.000000
60.780000	23.000000
60.800000	19.000000
60.820000	16.000000
60.840000	14.000000
60.860000	16.000000
60.880000	22.000000
60.900000	18.000000
60.920000	19.000000
60.940000	19.000000
60.960000	13.000000
60.980000	14.000000
61.000000	18.000000
61.020000	20.000000
61.040000	25.000000
61.060000	19.000000
61.080000	18.000000
61.100000	19.000000
61.120000	16.000000
61.140000	14.000000
61.160000	22.000000
61.180000	15.000000
61.200000	15.000000
61.220000	18.000000
61.240000	14.000000
61.260000	16.000000
61.280000	17.000000
61.300000	12.000000
61.320000	19.000000
61.340000	18.000000
61.360000	14.000000
61.380000	17.000000
61.400000	21.000000
61.420000	16.000000
61.440000	12.000000
61.460000	19.000000
61.480000	14.000000
61.500000	18.000000
61.520000	14.000000
61.540000	20.000000
61.560000	14.000000
61.580000	15.000000
61.600000	10.000000
61.620000	17.000000
61.640000	17.000000
61.660000	16.000000
61.680000	17.000000
61.700000	19.000000
61.720000	19.000000
61.740000	22.000000
61.760000	20.000000
61.780000	22.000000
61.800000	25.000000
61.820000	16.000000
61.840000	17.000000
61.860000	13.000000
61.880000	18.000000
61.900000	15.000000
61.920000	15.000000
61.940000	12.000000
61.960000	28.000000
61.980000	11.000000
62.000000	12.000000
62.020000	17.000000
62.040000	16.000000
62.060000	16.000000
62.080000	14.000000
62.100000	19.000000
62.120000	23.000000
62.140000	21.000000
62.160000	16.000000
62.180000	18.000000
62.200000	13.000000
62.220000	17.000000
62.240000	23.000000
62.260000	19.000000
62.280000	15.000000
62.300000	15.000000
62.320000	12.000000
62.340000	14.000000
62.360000	17.000000
62.380000	17.000000
62.400000	11.000000
62.420000	22.000000
62.440000	15.000000
62.460000	17.000000
62.480000	15.000000
62.500000	9.000000
62.520000	8.000000
62.540000	19.000000
62.560000	14.000000
62.580000	19.000000
62.600000	15.000000
62.620000	19.000000
62.640000	16.000000
62.660000	18.000000
62.680000	18.000000
62.700000	20.000000
62.720000	20.000000
62.740000	21.000000
62.760000	16.000000
62.780000	18.000000
62.800000	23.000000
62.820000	18.000000
62.840000	18.000000
62.860000	14.000000
62.880000	15.000000
62.900000	22.000000
62.920000	17.000000
62.940000	22.000000
62.960000	13.000000
62.980000	22.000000
63.000000	21.000000
63.020000	15.000000
63.040000	25.000000
63.060000	20.000000
63.080000	16.000000
63.100000	14.000000
63.120000	14.000000
63.140000	25.000000
63.160000	13.000000
63.180000	16.000000
63.200000	17.000000
63.220000	19.000000
63.240000	14.000000
63.260000	23.000000
63.280000	10.000000
63.300000	16.000000
63.320000	16.000000
63.340000	10.000000
63.360000	13.000000
63.380000	18.000000
63.400000	16.000000
63.420000	20.000000
63.440000	19.000000
63.460000	25.000000
63.480000	19.000000
63.500000	11.000000
63.520000	11.000000
63.540000	11.000000
63.560000	10.000000
63.580000	16.000000
63.600000	8.000000
63.620000	12.000000
63.640000	16.000000
63.660000	20.000000
63.680000	16.000000
63.700000	16.000000
63.720000	30.000000
63.740000	23.000000
63.760000	16.000000
63.780000	22.000000
63.800000	30.000000
63.820000	21.000000
63.840000	23.000000
63.860000	27.000000
63.880000	23.000000
63.900000	36.000000
63.920000	37.000000
63.940000	50.000000
63.960000	53.000000
63.980000	100.000000
64.000000	82.000000
64.020000	84.000000
64.040000	62.000000
64.060000	29.000000
64.080000	46.000000
64.100000	34.000000
64.120000	41.000000
64.140000	40.000000
64.160000	51.000000
64.180000	55.000000
64.200000	45.000000
64.220000	38.000000
64.240000	27.000000
64.260000	23.000000
64.280000	22.000000
64.300000	22.000000
64.320000	16.000000
64.340000	19.000000
64.360000	24.000000
64.380000	17.000000
64.400000	19.000000
64.420000	13.000000
64.440000	14.000000
64.460000	16.000000
64.480000	24.000000
64.500000	19.000000
64.520000	12.000000
64.540000	19.000000
64.560000	18.000000
64.580000	14.000000
64.600000	15.000000
64.620000	7.000000
64.640000	20.000000
64.660000	21.000000
64.680000	18.000000
64.700000	22.000000
64.720000	17.000000
64.740000	15.000000
64.760000	15.000000
64.780000	19.000000
64.800000	17.000000
64.820000	15.000000
64.840000	12.000000
64.860000	29.000000
64.880000	18.000000
64.900000	24.000000
64.920000	15.000000
64.940000	22.000000
64.960000	22.000000
64.980000	20.000000
65.000000	15.000000
65.020000	11.000000
65.040000	18.000000
65.060000	18.000000
65.080000	18.000000
65.100000	14.000000
65.120000	9.000000
65.140000	21.000000
65.160000	14.000000
65.180000	14.000000
65.200000	16.000000
65.220000	20.000000
65.240000	13.000000
65.260000	22.000000
65.280000	18.000000
65.300000	17.000000
65.320000	15.000000
65.340000	18.000000
65.360000	27.000000
65.380000	22.000000
65.400000	22.000000
65.420000	16.000000
65.440000	16.000000
65.460000	19.000000
65.480000	24.000000
65.500000	20.000000
65.520000	16.000000
65.540000	19.000000
65.560000	17.000000
65.580000	17.000000
65.600000	19.000000
65.620000	15.000000
65.640000	17.000000
65.660000	22.000000
65.680000	20.000000
65.700000	28.000000
65.720000	42.000000
65.740000	38.000000
65.760000	39.000000
65.780000	33.000000
65.800000	28.000000
65.820000	29.000000
65.840000	25.000000
65.860000	31.000000
65.880000	21.000000
65.900000	26.000000
65.920000	22.000000
65.940000	30.000000
65.960000	29.000000
65.980000	25.000000
66.000000	16.000000
66.020000	15.000000
66.040000	15.000000
66.060000	14.000000
66.080000	25.000000
66.100000	13.000000
66.120000	13.000000
66.140000	18.000000
66.160000	13.000000
66.180000	14.000000
66.200000	20.000000
66.220000	25.000000
66.240000	11.000000
66.260000	26.000000
66.280000	10.000000
66.300000	21.000000
66.320000	16.000000
66.340000	24.000000
66.360000	15.000000
66.380000	20.000000
66.400000	16.000000
66.420000	19.000000
66.440000	25.000000
66.460000	17.000000
66.480000	18.000000
66.500000	17.000000
66.520000	16.000000
66.540000	22.000000
66.560000	20.000000
66.580000	22.000000
66.600000	24.000000
66.620000	17.000000
66.640000	25.000000
66.660000	17.000000
66.680000	22.000000
66.700000	18.000000
66.720000	20.000000
66.740000	17.000000
66.760000	16.000000
66.780000	19.000000
66.800000	19.000000
66.820000	14.000000
66.840000	17.000000
66.860000	17.000000
66.880000	21.000000
66.900000	12.000000
66.920000	10.000000
66.940000	17.000000
66.960000	20.000000
66.980000	20.000000
67.000000	16.000000
67.020000	24.000000
67.040000	17.000000
67.060000	17.000000
67.080000	18.000000
67.100000	16.000000
67.120000	22.000000
67.140000	22.000000
67.160000	22.000000
67.180000	24.000000
67.200000	17.000000
67.220000	24.000000
67.240000	22.000000
67.260000	21.000000
67.280000	18.000000
67.300000	25.000000
67.320000	27.000000
67.340000	21.000000
67.360000	21.000000
67.380000	27.000000
67.400000	20.000000
67.420000	35.000000
67.440000	35.000000
67.460000	30.000000
67.480000	21.000000
67.500000	29.000000
67.520000	38.000000
67.540000	56.000000
67.560000	62.000000
67.580000	55.000000
67.600000	70.000000
67.620000	117.000000
67.640000	165.000000
67.660000	206.000000
67.680000	295.000000
67.700000	356.000000
67.720000	402.000000
67.740000	304.000000
67.760000	216.000000
67.780000	143.000000
67.800000	108.000000
67.820000	112.000000
67.840000	103.000000
67.860000	137.000000
67.880000	191.000000
67.900000	213.000000
67.920000	232.000000
67.940000	181.000000
67.960000	105.000000
67.980000	103.000000
68.000000	87.000000
68.020000	127.000000
68.040000	149.000000
68.060000	214.000000
68.080000	265.000000
68.100000	327.000000
68.120000	338.000000
68.140000	282.000000
68.160000	188.000000
68.180000	164.000000
68.200000	165.000000
68.220000	234.000000
68.240000	302.000000
68.260000	343.000000
68.280000	391.000000
68.300000	394.000000
68.320000	302.000000
68.340000	179.000000
68.360000	154.000000
68.380000	114.000000
68.400000	103.000000
68.420000	129.000000
68.440000	134.000000
68.460000	150.000000
68.480000	150.000000
68.500000	98.000000
68.520000	58.000000
68.540000	56.000000
68.560000	47.000000
68.580000	33.000000
68.600000	25.000000
68.620000	32.000000
68.640000	17.000000
68.660000	24.000000
68.680000	25.000000
68.700000	19.000000
68.720000	33.000000
68.740000	16.000000
68.760000	15.000000
68.780000	13.000000
68.800000	16.000000
68.820000	25.000000
68.840000	27.000000
68.860000	27.000000
68.880000	23.000000
68.900000	23.000000
68.920000	19.000000
68.940000	11.000000
68.960000	22.000000
68.980000	19.000000
69.000000	21.000000
69.020000	19.000000
69.040000	15.000000
69.060000	22.000000
69.080000	17.000000
69.100000	12.000000
69.120000	16.000000
69.140000	22.000000
69.160000	16.000000
69.180000	21.000000
69.200000	20.000000
69.220000	12.000000
69.240000	13.000000
69.260000	23.000000
69.280000	17.000000
69.300000	13.000000
69.320000	13.000000
69.340000	22.000000
69.360000	18.000000
69.380000	18.000000
69.400000	15.000000
69.420000	10.000000
69.440000	14.000000
69.460000	17.000000
69.480000	19.000000
69.500000	16.000000
69.520000	14.000000
69.540000	15.000000
69.560000	11.000000
69.580000	19.000000
69.600000	16.000000
69.620000	20.000000
69.640000	11.000000
69.660000	14.000000
69.680000	21.000000
69.700000	25.000000
69.720000	16.000000
69.740000	19.000000
69.760000	20.000000
69.780000	19.000000
69.800000	20.000000
69.820000	19.000000
69.840000	21.000000
69.860000	11.000000
69.880000	14.000000
69.900000	20.000000
69.920000	22.000000
69.940000	14.000000
69.960000	9.000000
69.980000	15.000000
70.000000	14.000000
70.020000	18.000000
70.040000	15.000000
70.060000	15.000000
70.080000	11.000000
70.100000	18.000000
70.120000	19.000000
70.140000	15.000000
70.160000	14.000000
70.180000	14.000000
70.200000	10.000000
70.220000	16.000000
70.240000	15.000000
70.260000	11.000000
70.280000	18.000000
70.300000	14.000000
70.320000	13.000000
70.340000	13.000000
70.360000	17.000000
70.380000	9.000000
70.400000	14.000000
70.420000	16.000000
70.440000	14.000000
70.460000	17.000000
70.480000	15.000000
70.500000	17.000000
70.520000	10.000000
70.540000	17.000000
70.560000	11.000000
70.580000	13.000000
70.600000	15.000000
70.620000	15.000000
70.640000	16.000000
70.660000	14.000000
70.680000	17.000000
70.700000	13.000000
70.720000	17.000000
70.740000	12.000000
70.760000	20.000000
70.780000	14.000000
70.800000	20.000000
70.820000	12.000000
70.840000	16.000000
70.860000	14.000000
70.880000	18.000000
70.900000	11.000000
70.920000	23.000000
70.940000	13.000000
70.960000	18.000000
70.980000	15.000000
71.000000	13.000000
71.020000	18.000000
71.040000	16.000000
71.060000	13.000000
71.080000	20.000000
71.100000	19.000000
71.120000	15.000000
71.140000	11.000000
71.160000	16.000000
71.180000	8.000000
71.200000	9.000000
71.220000	18.000000
71.240000	16.000000
71.260000	14.000000
71.280000	12.000000
71.300000	13.000000
71.320000	22.000000
71.340000	10.000000
71.360000	8.000000
71.380000	17.000000
71.400000	9.000000
71.420000	12.000000
71.440000	14.000000
71.460000	14.000000
71.480000	14.000000
71.500000	24.000000
71.520000	12.000000
71.540000	19.000000
71.560000	17.000000
71.580000	24.000000
71.600000	21.000000
71.620000	13.000000
71.640000	10.000000
71.660000	22.000000
71.680000	16.000000
71.700000	17.000000
71.720000	8.000000
71.740000	16.000000
71.760000	11.000000
71.780000	13.000000
71.800000	18.000000
71.820000	15.000000
71.840000	14.000000
71.860000	12.000000
71.880000	14.000000
71.900000	17.000000
71.920000	10.000000
71.940000	17.000000
71.960000	21.000000
71.980000	20.000000
72.000000	14.000000
72.020000	18.000000
72.040000	13.000000
72.060000	17.000000
72.080000	11.000000
72.100000	15.000000
72.120000	15.000000
72.140000	17.000000
72.160000	16.000000
72.180000	20.000000
72.200000	14.000000
72.220000	15.000000
72.240000	14.000000
72.260000	17.000000
72.280000	16.000000
72.300000	20.000000
72.320000	11.000000
72.340000	13.000000
72.360000	6.000000
72.380000	21.000000
72.400000	15.000000
72.420000	11.000000
72.440000	12.000000
72.460000	20.000000
72.480000	9.000000
72.500000	16.000000
72.520000	8.000000
72.540000	13.000000
72.560000	20.000000
72.580000	17.000000
72.600000	18.000000
72.620000	14.000000
72.640000	13.000000
72.660000	11.000000
72.680000	10.000000
72.700000	25.000000
72.720000	16.000000
72.740000	12.000000
72.760000	22.000000
72.780000	11.000000
72.800000	16.000000
72.820000	9.000000
72.840000	22.000000
72.860000	18.000000
72.880000	15.000000
72.900000	23.000000
72.920000	19.000000
72.940000	10.000000
72.960000	19.000000
72.980000	8.000000
73.000000	20.000000
73.020000	13.000000
73.040000	13.000000
73.060000	20.000000
73.080000	14.000000
73.100000	10.000000
73.120000	15.000000
73.140000	20.000000
73.160000	17.000000
73.180000	18.000000
73.200000	22.000000
73.220000	18.000000
73.240000	22.000000
73.260000	21.000000
73.280000	23.000000
73.300000	30.000000
73.320000	42.000000
73.340000	45.000000
73.360000	47.000000
73.380000	71.000000
73.400000	96.000000
73.420000	127.000000
73.440000	120.000000
73.460000	80.000000
73.480000	63.000000
73.500000	55.000000
73.520000	49.000000
73.540000	31.000000
73.560000	38.000000
73.580000	39.000000
73.600000	53.000000
73.620000	54.000000
73.640000	79.000000
73.660000	54.000000
73.680000	42.000000
73.700000	36.000000
73.720000	22.000000
73.740000	22.000000
73.760000	20.000000
73.780000	22.000000
73.800000	16.000000
73.820000	14.000000
73.840000	16.000000
73.860000	19.000000
73.880000	17.000000
73.900000	16.000000
73.920000	17.000000
73.940000	16.000000
73.960000	17.000000
73.980000	19.000000
74.000000	19.000000
74.020000	21.000000
74.040000	13.000000
74.060000	17.000000
74.080000	8.000000
74.100000	20.000000
74.120000	21.000000
74.140000	15.000000
74.160000	18.000000
74.180000	10.000000
74.200000	11.000000
74.220000	22.000000
74.240000	15.000000
74.260000	14.000000
74.280000	17.000000
74.300000	16.000000
74.320000	18.000000
74.340000	14.000000
74.360000	19.000000
74.380000	13.000000
74.400000	17.000000
74.420000	16.000000
74.440000	23.000000
74.460000	14.000000
74.480000	11.000000
74.500000	14.000000
74.520000	20.000000
74.540000	14.000000
74.560000	17.000000
74.580000	12.000000
74.600000	24.000000
74.620000	11.000000
74.640000	15.000000
74.660000	12.000000
74.680000	13.000000
74.700000	18.000000
74.720000	10.000000
74.740000	14.000000
74.760000	18.000000
74.780000	19.000000
74.800000	17.000000
74.820000	18.000000
74.840000	22.000000
74.860000	14.000000
74.880000	13.000000
74.900000	21.000000
74.920000	11.000000
74.940000	16.000000
74.960000	14.000000
74.980000	25.000000
75.000000	19.000000
75.020000	15.000000
75.040000	22.000000
75.060000	12.000000
75.080000	19.000000
75.100000	12.000000
75.120000	13.000000
75.140000	21.000000
75.160000	17.000000
75.180000	14.000000
75.200000	15.000000
75.220000	21.000000
75.240000	16.000000
75.260000	19.000000
75.280000	17.000000
75.300000	16.000000
75.320000	20.000000
75.340000	17.000000
75.360000	15.000000
75.380000	17.000000
75.400000	14.000000
75.420000	24.000000
75.440000	31.000000
75.460000	37.000000
75.480000	29.000000
75.500000	44.000000
75.520000	45.000000
75.540000	61.000000
75.560000	116.000000
75.580000	118.000000
75.600000	175.000000
75.620000	207.000000
75.640000	173.000000
75.660000	107.000000
75.680000	94.000000
75.700000	64.000000
75.720000	51.000000
75.740000	59.000000
75.760000	47.000000
75.780000	66.000000
75.800000	69.000000
75.820000	113.000000
75.840000	114.000000
75.860000	89.000000
75.880000	83.000000
75.900000	70.000000
75.920000	39.000000
75.940000	47.000000
75.960000	26.000000
75.980000	29.000000
76.000000	14.000000
76.020000	30.000000
76.040000	15.000000
76.060000	19.000000
76.080000	12.000000
76.100000	17.000000
76.120000	16.000000
76.140000	20.000000
76.160000	15.000000
76.180000	20.000000
76.200000	16.000000
76.220000	17.000000
76.240000	19.000000
76.260000	18.000000
76.280000	14.000000
76.300000	19.000000
76.320000	15.000000
76.340000	18.000000
76.360000	12.000000
76.380000	11.000000
76.400000	18.000000
76.420000	16.000000
76.440000	16.000000
76.460000	15.000000
76.480000	19.000000
76.500000	19.000000
76.520000	17.000000
76.540000	23.000000
76.560000	13.000000
76.580000	20.000000
76.600000	16.000000
76.620000	10.000000
76.640000	11.000000
76.660000	18.000000
76.680000	19.000000
76.700000	19.000000
76.720000	19.000000
76.740000	8.000000
76.760000	9.000000
76.780000	14.000000
76.800000	13.000000
76.820000	16.000000
76.840000	12.000000
76.860000	18.000000
76.880000	8.000000
76.900000	15.000000
76.920000	13.000000
76.940000	11.000000
76.960000	25.000000
76.980000	16.000000
77.000000	19.000000
77.020000	13.000000
77.040000	21.000000
77.060000	13.000000
77.080000	13.000000
77.100000	18.000000
77.120000	13.000000
77.140000	15.000000
77.160000	14.000000
77.180000	15.000000
77.200000	18.000000
77.220000	15.000000
77.240000	18.000000
77.260000	17.000000
77.280000	12.000000
77.300000	16.000000
77.320000	15.000000
77.340000	17.000000
77.360000	23.000000
77.380000	12.000000
77.400000	18.000000
77.420000	22.000000
77.440000	27.000000
77.460000	22.000000
77.480000	30.000000
77.500000	27.000000
77.520000	33.000000
77.540000	38.000000
77.560000	37.000000
77.580000	46.000000
77.600000	64.000000
77.620000	61.000000
77.640000	87.000000
77.660000	60.000000
77.680000	52.000000
77.700000	28.000000
77.720000	32.000000
77.740000	35.000000
77.760000	39.000000
77.780000	27.000000
77.800000	29.000000
77.820000	39.000000
77.840000	42.000000
77.860000	45.000000
77.880000	47.000000
77.900000	33.000000
77.920000	24.000000
77.940000	17.000000
77.960000	22.000000
77.980000	8.000000
78.000000	15.000000
78.020000	17.000000
78.040000	10.000000
78.060000	17.000000
78.080000	19.000000
78.100000	13.000000
78.120000	14.000000
78.140000	15.000000
78.160000	11.000000
78.180000	16.000000
78.200000	14.000000
78.220000	13.000000
78.240000	16.000000
78.260000	17.000000
78.280000	7.000000
78.300000	12.000000
78.320000	18.000000
78.340000	25.000000
78.360000	15.000000
78.380000	21.000000
78.400000	11.000000
78.420000	16.000000
78.440000	22.000000
78.460000	16.000000
78.480000	16.000000
78.500000	15.000000
78.520000	13.000000
78.540000	18.000000
78.560000	7.000000
78.580000	14.000000
78.600000	24.000000
78.620000	22.000000
78.640000	11.000000
78.660000	17.000000
78.680000	8.000000
78.700000	18.000000
78.720000	12.000000
78.740000	19.000000
78.760000	13.000000
78.780000	11.000000
78.800000	16.000000
78.820000	17.000000
78.840000	16.000000
78.860000	14.000000
78.880000	17.000000
78.900000	22.000000
78.920000	19.000000
78.940000	9.000000
78.960000	17.000000
78.980000	14.000000
79.000000	22.000000
79.020000	16.000000
79.040000	15.000000
79.060000	15.000000
79.080000	7.000000
79.100000	15.000000
79.120000	12.000000
79.140000	13.000000
79.160000	20.000000
79.180000	11.000000
79.200000	12.000000
79.220000	17.000000
79.240000	14.000000
79.260000	26.000000
79.280000	16.000000
79.300000	11.000000
79.320000	13.000000
79.340000	18.000000
79.360000	12.000000
79.380000	18.000000
79.400000	20.000000
79.420000	11.000000
79.440000	7.000000
79.460000	18.000000
79.480000	23.000000
79.500000	15.000000
79.520000	16.000000
79.540000	16.000000
79.560000	19.000000
79.580000	20.000000
79.600000	25.000000
79.620000	23.000000
79.640000	17.000000
79.660000	30.000000
79.680000	28.000000
79.700000	20.000000
79.720000	49.000000
79.740000	43.000000
79.760000	63.000000
79.780000	88.000000
79.800000	108.000000
79.820000	148.000000
79.840000	218.000000
79.860000	253.000000
79.880000	170.000000
79.900000	138.000000
79.920000	104.000000
79.940000	64.000000
79.960000	71.000000
79.980000	80.000000
80.000000	81.000000
