10.006000 2079.360000
10.026000 2171.560000
10.046000 2088.490000
10.066000 2088.490000
10.086000 2061.160000
10.106000 2097.640000
10.126000 2007.040000
10.146000 2227.840000
10.166000 1989.160000
10.186000 2218.410000
10.206000 2237.290000
10.226000 2134.440000
10.246000 2125.210000
10.266000 2134.440000
10.286000 2025.000000
10.306000 1883.560000
10.326000 1962.490000
10.346000 1953.640000
10.366000 2025.000000
10.386000 2034.010000
10.406000 2097.640000
10.426000 2070.250000
10.446000 2134.440000
10.466000 2097.640000
10.486000 2246.760000
10.506000 2116.000000
10.526000 2043.040000
10.546000 2088.490000
10.566000 2061.160000
10.586000 2052.090000
10.606000 2134.440000
10.626000 2052.090000
10.646000 2143.690000
10.666000 2171.560000
10.686000 1962.490000
10.706000 1883.560000
10.726000 1998.090000
10.746000 2079.360000
10.766000 1998.090000
10.786000 1936.000000
10.806000 1866.240000
10.826000 1909.690000
10.846000 1953.640000
10.866000 1918.440000
10.886000 1927.210000
10.906000 2007.040000
10.926000 2016.010000
10.946000 1980.250000
10.966000 1989.160000
10.986000 2043.040000
11.006000 2061.160000
11.026000 1980.250000
11.046000 1936.000000
11.066000 1936.000000
11.086000 1936.000000
11.106000 1998.090000
11.126000 1998.090000
11.146000 1918.440000
11.166000 1806.250000
11.186000 1944.810000
11.206000 2007.040000
11.226000 1989.160000
11.246000 2025.000000
11.266000 1989.160000
11.286000 1849.000000
11.306000 1918.440000
11.326000 1989.160000
11.346000 1962.490000
11.366000 1806.250000
11.386000 1900.960000
11.406000 1900.960000
11.426000 1971.360000
11.446000 1980.250000
11.466000 1998.090000
11.486000 2025.000000
11.506000 1944.810000
11.526000 2025.000000
11.546000 2034.010000
11.566000 2043.040000
11.586000 1797.760000
11.606000 1823.290000
11.626000 1900.960000
11.646000 1998.090000
11.666000 1900.960000
11.686000 1953.640000
11.706000 1944.810000
11.726000 1823.290000
11.746000 1849.000000
11.766000 1789.290000
11.786000 1797.760000
11.806000 1927.210000
11.826000 1849.000000
11.846000 1806.250000
11.866000 1814.760000
11.886000 1944.810000
11.906000 1927.210000
11.926000 1857.610000
11.946000 1927.210000
11.966000 1927.210000
11.986000 1840.410000
12.006000 1831.840000
12.026000 1849.000000
12.046000 1772.410000
12.066000 1866.240000
12.086000 1797.760000
12.106000 1789.290000
12.126000 1797.760000
12.146000 1900.960000
12.166000 1857.610000
12.186000 1730.560000
12.206000 1755.610000
12.226000 1772.410000
12.246000 1849.000000
12.266000 1909.690000
12.286000 1936.000000
12.306000 1874.890000
12.326000 1814.760000
12.346000 1857.610000
12.366000 1797.760000
12.386000 1814.760000
12.406000 1866.240000
12.426000 1814.760000
12.446000 1849.000000
12.466000 1883.560000
12.486000 1814.760000
12.506000 1814.760000
12.526000 1672.810000
12.546000 1713.960000
12.566000 1755.610000
12.586000 1806.250000
12.606000 1689.210000
12.626000 1738.890000
12.646000 1797.760000
12.666000 1814.760000
12.686000 1806.250000
12.706000 1857.610000
12.726000 1823.290000
12.746000 1681.000000
12.766000 1713.960000
12.786000 1705.690000
12.806000 1823.290000
12.826000 1900.960000
12.846000 1755.610000
12.866000 1874.890000
12.886000 1831.840000
12.906000 1738.890000
12.926000 1797.760000
12.946000 1738.890000
12.966000 1722.250000
12.986000 1705.690000
13.006000 1823.290000
13.026000 1831.840000
13.046000 1705.690000
13.066000 1648.360000
13.086000 1672.810000
13.106000 1681.000000
13.126000 1730.560000
13.146000 1681.000000
13.166000 1764.000000
13.186000 1789.290000
13.206000 1747.240000
13.226000 1730.560000
13.246000 1764.000000
13.266000 1697.440000
13.286000 1823.290000
13.306000 1697.440000
13.326000 1681.000000
13.346000 1713.960000
13.366000 1681.000000
13.386000 1592.010000
13.406000 1632.160000
13.426000 1624.090000
13.446000 1664.640000
13.466000 1697.440000
13.486000 1656.490000
13.506000 1705.690000
13.526000 1672.810000
13.546000 1747.240000
13.566000 1713.960000
13.586000 1697.440000
13.606000 1681.000000
13.626000 1764.000000
13.646000 1831.840000
13.666000 1672.810000
13.686000 1672.810000
13.706000 1697.440000
13.726000 1656.490000
13.746000 1632.160000
13.766000 1730.560000
13.786000 1632.160000
13.806000 1616.040000
13.826000 1747.240000
13.846000 1656.490000
13.866000 1632.160000
13.886000 1536.640000
13.906000 1608.010000
13.926000 1640.250000
13.946000 1689.210000
13.966000 1656.490000
13.986000 1608.010000
14.006000 1608.010000
14.026000 1705.690000
14.046000 1640.250000
14.066000 1576.090000
14.086000 1600.000000
14.106000 1616.040000
14.126000 1672.810000
14.146000 1592.010000
14.166000 1536.640000
14.186000 1592.010000
14.206000 1444.000000
14.226000 1656.490000
14.246000 1560.250000
14.266000 1592.010000
14.286000 1536.640000
14.306000 1497.690000
14.326000 1624.090000
14.346000 1428.840000
14.366000 1552.360000
14.386000 1672.810000
14.406000 1560.250000
14.426000 1592.010000
14.446000 1497.690000
14.466000 1536.640000
14.486000 1536.640000
14.506000 1528.810000
14.526000 1544.490000
14.546000 1648.360000
14.566000 1584.040000
14.586000 1552.360000
14.606000 1648.360000
14.626000 1608.010000
14.646000 1552.360000
14.666000 1624.090000
14.686000 1624.090000
14.706000 1608.010000
14.726000 1536.640000
14.746000 1497.690000
14.766000 1466.890000
14.786000 1451.610000
14.806000 1413.760000
14.826000 1444.000000
14.846000 1536.640000
14.866000 1505.440000
14.886000 1451.610000
14.906000 1489.960000
14.926000 1592.010000
14.946000 1536.640000
14.966000 1489.960000
14.986000 1459.240000
15.006000 1444.000000
15.026000 1466.890000
15.046000 1428.840000
15.066000 1466.890000
15.086000 1568.160000
15.106000 1536.640000
15.126000 1584.040000
15.146000 1544.490000
15.166000 1592.010000
15.186000 1600.000000
15.206000 1482.250000
15.226000 1391.290000
15.246000 1497.690000
15.266000 1451.610000
15.286000 1421.290000
15.306000 1444.000000
15.326000 1489.960000
15.346000 1406.250000
15.366000 1576.090000
15.386000 1474.560000
15.406000 1474.560000
15.426000 1474.560000
15.446000 1513.210000
15.466000 1474.560000
15.486000 1489.960000
15.506000 1536.640000
15.526000 1474.560000
15.546000 1474.560000
15.566000 1474.560000
15.586000 1436.410000
15.606000 1513.210000
15.626000 1513.210000
15.646000 1497.690000
15.666000 1552.360000
15.686000 1459.240000
15.706000 1505.440000
15.726000 1536.640000
15.746000 1444.000000
15.766000 1444.000000
15.786000 1459.240000
15.806000 1466.890000
15.826000 1391.290000
15.846000 1466.890000
15.866000 1513.210000
15.886000 1421.290000
15.906000 1361.610000
15.926000 1398.760000
15.946000 1497.690000
15.966000 1560.250000
15.986000 1536.640000
16.006000 1528.810000
16.026000 1369.000000
16.046000 1332.250000
16.066000 1369.000000
16.086000 1398.760000
16.106000 1376.410000
16.126000 1376.410000
16.146000 1391.290000
16.166000 1406.250000
16.186000 1391.290000
16.206000 1436.410000
16.226000 1376.410000
16.246000 1339.560000
16.266000 1428.840000
16.286000 1451.610000
16.306000 1391.290000
16.326000 1369.000000
16.346000 1391.290000
16.366000 1391.290000
16.386000 1317.690000
16.406000 1421.290000
16.426000 1459.240000
16.446000 1398.760000
16.466000 1428.840000
16.486000 1346.890000
16.506000 1391.290000
16.526000 1398.760000
16.546000 1406.250000
16.566000 1428.840000
16.586000 1369.000000
16.606000 1361.610000
16.626000 1466.890000
16.646000 1444.000000
16.666000 1482.250000
16.686000 1451.610000
16.706000 1474.560000
16.726000 1376.410000
16.746000 1376.410000
16.766000 1376.410000
16.786000 1444.000000
16.806000 1513.210000
16.826000 1391.290000
16.846000 1489.960000
16.866000 1376.410000
16.886000 1383.840000
16.906000 1391.290000
16.926000 1369.000000
16.946000 1406.250000
16.966000 1376.410000
16.986000 1376.410000
17.006000 1398.760000
17.026000 1354.240000
17.046000 1391.290000
17.066000 1361.610000
17.086000 1391.290000
17.106000 1398.760000
17.126000 1361.610000
17.146000 1497.690000
17.166000 1489.960000
17.186000 1421.290000
17.206000 1361.610000
17.226000 1346.890000
17.246000 1376.410000
17.266000 1428.840000
17.286000 1428.840000
17.306000 1406.250000
17.326000 1361.610000
17.346000 1346.890000
17.366000 1406.250000
17.386000 1482.250000
17.406000 1466.890000
17.426000 1413.760000
17.446000 1369.000000
17.466000 1354.240000
17.486000 1406.250000
17.506000 1421.290000
17.526000 1436.410000
17.546000 1361.610000
17.566000 1339.560000
17.586000 1346.890000
17.606000 1383.840000
17.626000 1376.410000
17.646000 1398.760000
17.666000 1354.240000
17.686000 1310.440000
17.706000 1421.290000
17.726000 1444.000000
17.746000 1466.890000
17.766000 1444.000000
17.786000 1391.290000
17.806000 1459.240000
17.826000 1354.240000
17.846000 1428.840000
17.866000 1376.410000
17.886000 1317.690000
17.906000 1267.360000
17.926000 1303.210000
17.946000 1406.250000
17.966000 1421.290000
17.986000 1444.000000
18.006000 1332.250000
18.026000 1354.240000
18.046000 1354.240000
18.066000 1421.290000
18.086000 1339.560000
18.106000 1346.890000
18.126000 1391.290000
18.146000 1383.840000
18.166000 1376.410000
18.186000 1383.840000
18.206000 1459.240000
18.226000 1383.840000
18.246000 1413.760000
18.266000 1413.760000
18.286000 1303.210000
18.306000 1361.610000
18.326000 1413.760000
18.346000 1354.240000
18.366000 1391.290000
18.386000 1421.290000
18.406000 1391.290000
18.426000 1421.290000
18.446000 1361.610000
18.466000 1383.840000
18.486000 1391.290000
18.506000 1383.840000
18.526000 1413.760000
18.546000 1376.410000
18.566000 1332.250000
18.586000 1361.610000
18.606000 1413.760000
18.626000 1436.410000
18.646000 1428.840000
18.666000 1451.610000
18.686000 1436.410000
18.706000 1482.250000
18.726000 1444.000000
18.746000 1436.410000
18.766000 1451.610000
18.786000 1474.560000
18.806000 1482.250000
18.826000 1421.290000
18.846000 1369.000000
18.866000 1413.760000
18.886000 1383.840000
18.906000 1391.290000
18.926000 1383.840000
18.946000 1406.250000
18.966000 1421.290000
18.986000 1466.890000
19.006000 1482.250000
19.026000 1474.560000
19.046000 1421.290000
19.066000 1451.610000
19.086000 1489.960000
19.106000 1369.000000
19.126000 1383.840000
19.146000 1391.290000
19.166000 1451.610000
19.186000 1451.610000
19.206000 1466.890000
19.226000 1406.250000
19.246000 1413.760000
19.266000 1391.290000
19.286000 1361.610000
19.306000 1376.410000
19.326000 1421.290000
19.346000 1474.560000
19.366000 1474.560000
19.386000 1474.560000
19.406000 1406.250000
19.426000 1332.250000
19.446000 1428.840000
19.466000 1436.410000
19.486000 1459.240000
19.506000 1444.000000
19.526000 1413.760000
19.546000 1383.840000
19.566000 1398.760000
19.586000 1482.250000
19.606000 1459.240000
19.626000 1459.240000
19.646000 1354.240000
19.666000 1444.000000
19.686000 1413.760000
19.706000 1376.410000
19.726000 1474.560000
19.746000 1466.890000
19.766000 1428.840000
19.786000 1421.290000
19.806000 1466.890000
19.826000 1489.960000
19.846000 1528.810000
19.866000 1513.210000
19.886000 1406.250000
19.906000 1413.760000
19.926000 1444.000000
19.946000 1489.960000
19.966000 1513.210000
19.986000 1421.290000
20.006000 1466.890000
20.026000 1552.360000
20.046000 1513.210000
20.066000 1421.290000
20.086000 1428.840000
20.106000 1466.890000
20.126000 1482.250000
20.146000 1544.490000
20.166000 1528.810000
20.186000 1505.440000
20.206000 1444.000000
20.226000 1536.640000
20.246000 1482.250000
20.266000 1436.410000
20.286000 1413.760000
20.306000 1482.250000
20.326000 1459.240000
20.346000 1421.290000
20.366000 1459.240000
20.386000 1466.890000
20.406000 1536.640000
20.426000 1544.490000
20.446000 1552.360000
20.466000 1466.890000
20.486000 1513.210000
20.506000 1521.000000
20.526000 1608.010000
20.546000 1600.000000
20.566000 1576.090000
20.586000 1656.490000
20.606000 1689.210000
20.626000 1730.560000
20.646000 1705.690000
20.666000 1849.000000
20.686000 1857.610000
20.706000 2007.040000
20.726000 2190.240000
20.746000 2361.960000
20.766000 2590.810000
20.786000 3203.560000
20.806000 3757.690000
20.826000 4462.240000
20.846000 5520.490000
20.866000 6528.640000
20.886000 6432.040000
20.906000 4970.250000
20.926000 3931.290000
20.946000 3102.490000
20.966000 2265.760000
20.986000 1806.250000
21.006000 1648.360000
21.026000 1608.010000
21.046000 1584.040000
21.066000 1592.010000
21.086000 1624.090000
21.106000 1576.090000
21.126000 1528.810000
21.146000 1444.000000
21.166000 1451.610000
21.186000 1421.290000
21.206000 1413.760000
21.226000 1413.760000
21.246000 1421.290000
21.266000 1436.410000
21.286000 1436.410000
21.306000 1459.240000
21.326000 1444.000000
21.346000 1474.560000
21.366000 1451.610000
21.386000 1482.250000
21.406000 1466.890000
21.426000 1398.760000
21.446000 1376.410000
21.466000 1421.290000
21.486000 1428.840000
21.506000 1451.610000
21.526000 1451.610000
21.546000 1466.890000
21.566000 1474.560000
21.586000 1421.290000
21.606000 1398.760000
21.626000 1474.560000
21.646000 1505.440000
21.666000 1391.290000
21.686000 1361.610000
21.706000 1361.610000
21.726000 1413.760000
21.746000 1421.290000
21.766000 1339.560000
21.786000 1398.760000
21.806000 1383.840000
21.826000 1317.690000
21.846000 1376.410000
21.866000 1383.840000
21.886000 1391.290000
21.906000 1413.760000
21.926000 1474.560000
21.946000 1398.760000
21.966000 1421.290000
21.986000 1482.250000
22.006000 1346.890000
22.026000 1324.960000
22.046000 1317.690000
22.066000 1376.410000
22.086000 1339.560000
22.106000 1369.000000
22.126000 1413.760000
22.146000 1332.250000
22.166000 1339.560000
22.186000 1361.610000
22.206000 1354.240000
22.226000 1383.840000
22.246000 1391.290000
22.266000 1346.890000
22.286000 1428.840000
22.306000 1413.760000
22.326000 1391.290000
22.346000 1324.960000
22.366000 1369.000000
22.386000 1339.560000
22.406000 1303.210000
22.426000 1267.360000
22.446000 1310.440000
22.466000 1332.250000
22.486000 1317.690000
22.506000 1317.690000
22.526000 1332.250000
22.546000 1354.240000
22.566000 1317.690000
22.586000 1260.250000
22.606000 1288.810000
22.626000 1324.960000
22.646000 1296.000000
22.666000 1274.490000
22.686000 1267.360000
22.706000 1303.210000
22.726000 1317.690000
22.746000 1310.440000
22.766000 1281.640000
22.786000 1239.040000
22.806000 1225.000000
22.826000 1332.250000
22.846000 1317.690000
22.866000 1225.000000
22.886000 1211.040000
22.906000 1225.000000
22.926000 1346.890000
22.946000 1310.440000
22.966000 1303.210000
22.986000 1296.000000
23.006000 1324.960000
23.026000 1246.090000
23.046000 1239.040000
23.066000 1232.010000
23.086000 1225.000000
23.106000 1260.250000
23.126000 1225.000000
23.146000 1239.040000
23.166000 1253.160000
23.186000 1190.250000
23.206000 1204.090000
23.226000 1211.040000
23.246000 1253.160000
23.266000 1274.490000
23.286000 1310.440000
23.306000 1239.040000
23.326000 1239.040000
23.346000 1218.010000
23.366000 1239.040000
23.386000 1253.160000
23.406000 1115.560000
23.426000 1169.640000
23.446000 1204.090000
23.466000 1239.040000
23.486000 1190.250000
23.506000 1183.360000
23.526000 1183.360000
23.546000 1239.040000
23.566000 1183.360000
23.586000 1239.040000
23.606000 1267.360000
23.626000 1204.090000
23.646000 1122.250000
23.666000 1162.810000
23.686000 1183.360000
23.706000 1162.810000
23.726000 1149.210000
23.746000 1135.690000
23.766000 1183.360000
23.786000 1176.490000
23.806000 1197.160000
23.826000 1183.360000
23.846000 1183.360000
23.866000 1162.810000
23.886000 1156.000000
23.906000 1176.490000
23.926000 1190.250000
23.946000 1156.000000
23.966000 1169.640000
23.986000 1211.040000
24.006000 1176.490000
24.026000 1197.160000
24.046000 1176.490000
24.066000 1149.210000
24.086000 1135.690000
24.106000 1115.560000
24.126000 1122.250000
24.146000 1142.440000
24.166000 1115.560000
24.186000 1108.890000
24.206000 1128.960000
24.226000 1156.000000
24.246000 1102.240000
24.266000 1108.890000
24.286000 1142.440000
24.306000 1169.640000
24.326000 1095.610000
24.346000 1075.840000
24.366000 1162.810000
24.386000 1128.960000
24.406000 1108.890000
24.426000 1122.250000
24.446000 1049.760000
24.466000 1030.410000
24.486000 1043.290000
24.506000 1142.440000
24.526000 1024.000000
24.546000 1024.000000
24.566000 1075.840000
24.586000 1082.410000
24.606000 1122.250000
24.626000 1156.000000
24.646000 1142.440000
24.666000 1075.840000
24.686000 1095.610000
24.706000 1108.890000
24.726000 1030.410000
24.746000 1095.610000
24.766000 1056.250000
24.786000 1115.560000
24.806000 1128.960000
24.826000 1108.890000
24.846000 1075.840000
24.866000 1024.000000
24.886000 1036.840000
24.906000 1036.840000
24.926000 1017.610000
24.946000 1056.250000
24.966000 1011.240000
24.986000 985.960000
25.006000 1004.890000
25.026000 1049.760000
25.046000 998.560000
25.066000 992.250000
25.086000 1056.250000
25.106000 1030.410000
25.126000 1049.760000
25.146000 1069.290000
25.166000 1024.000000
25.186000 1024.000000
25.206000 998.560000
25.226000 954.810000
25.246000 954.810000
25.266000 967.210000
25.286000 992.250000
25.306000 992.250000
25.326000 942.490000
25.346000 936.360000
25.366000 1004.890000
25.386000 985.960000
25.406000 992.250000
25.426000 973.440000
25.446000 967.210000
25.466000 1004.890000
25.486000 979.690000
25.506000 967.210000
25.526000 985.960000
25.546000 924.160000
25.566000 973.440000
25.586000 1036.840000
25.606000 1049.760000
25.626000 1036.840000
25.646000 1017.610000
25.666000 1056.250000
25.686000 1004.890000
25.706000 998.560000
25.726000 1049.760000
25.746000 1122.250000
25.766000 1075.840000
25.786000 1108.890000
25.806000 1089.000000
25.826000 1036.840000
25.846000 998.560000
25.866000 1030.410000
25.886000 1049.760000
25.906000 1036.840000
25.926000 1056.250000
25.946000 1030.410000
25.966000 961.000000
25.986000 985.960000
26.006000 1036.840000
26.026000 1017.610000
26.046000 1049.760000
26.066000 1049.760000
26.086000 1108.890000
26.106000 1075.840000
26.126000 1036.840000
26.146000 1069.290000
26.166000 1082.410000
26.186000 1049.760000
26.206000 1056.250000
26.226000 1156.000000
26.246000 1089.000000
26.266000 1108.890000
26.286000 1190.250000
26.306000 1246.090000
26.326000 1281.640000
26.346000 1369.000000
26.366000 1489.960000
26.386000 1624.090000
26.406000 1831.840000
26.426000 2106.810000
26.446000 2420.640000
26.466000 2787.840000
26.486000 3398.890000
26.506000 4160.250000
26.526000 5329.000000
26.546000 6988.960000
26.566000 8873.640000
26.586000 11990.250000
26.606000 16512.250000
26.626000 22171.210000
26.646000 26699.560000
26.666000 25281.000000
26.686000 18961.290000
26.706000 15227.560000
26.726000 12611.290000
26.746000 8190.250000
26.766000 4303.360000
26.786000 2530.090000
26.806000 2034.010000
26.826000 1730.560000
26.846000 1576.090000
26.866000 1413.760000
26.886000 1296.000000
26.906000 1260.250000
26.926000 1183.360000
26.946000 1102.240000
26.966000 1043.290000
26.986000 1024.000000
27.006000 1095.610000
27.026000 1036.840000
27.046000 1024.000000
27.066000 1024.000000
27.086000 1017.610000
27.106000 918.090000
27.126000 967.210000
27.146000 985.960000
27.166000 992.250000
27.186000 998.560000
27.206000 936.360000
27.226000 906.010000
27.246000 942.490000
27.266000 942.490000
27.286000 888.040000
27.306000 882.090000
27.326000 888.040000
27.346000 979.690000
27.366000 888.040000
27.386000 888.040000
27.406000 936.360000
27.426000 961.000000
27.446000 973.440000
27.466000 1036.840000
27.486000 1017.610000
27.506000 992.250000
27.526000 979.690000
27.546000 998.560000
27.566000 1030.410000
27.586000 954.810000
27.606000 930.250000
27.626000 948.640000
27.646000 900.000000
27.666000 906.010000
27.686000 912.040000
27.706000 912.040000
27.726000 936.360000
27.746000 894.010000
27.766000 864.360000
27.786000 864.360000
27.806000 918.090000
27.826000 936.360000
27.846000 906.010000
27.866000 858.490000
27.886000 888.040000
27.906000 900.000000
27.926000 912.040000
27.946000 930.250000
27.966000 918.090000
27.986000 882.090000
28.006000 918.090000
28.026000 942.490000
28.046000 961.000000
28.066000 930.250000
28.086000 924.160000
28.106000 967.210000
28.126000 973.440000
28.146000 967.210000
28.166000 1115.560000
28.186000 1169.640000
28.206000 1253.160000
28.226000 1339.560000
28.246000 1346.890000
28.266000 1552.360000
28.286000 1849.000000
28.306000 2227.840000
28.326000 2672.890000
28.346000 3306.250000
28.366000 4083.210000
28.386000 5461.210000
28.406000 7726.410000
28.426000 10857.640000
28.446000 14042.250000
28.466000 14641.000000
28.486000 10983.040000
28.506000 8335.690000
28.526000 7744.000000
28.546000 6288.490000
28.566000 3600.000000
28.586000 1927.210000
28.606000 1436.410000
28.626000 1274.490000
28.646000 1183.360000
28.666000 1089.000000
28.686000 1049.760000
28.706000 998.560000
28.726000 906.010000
28.746000 912.040000
28.766000 894.010000
28.786000 882.090000
28.806000 900.000000
28.826000 829.440000
28.846000 795.240000
28.866000 800.890000
28.886000 806.560000
28.906000 846.810000
28.926000 812.250000
28.946000 823.690000
28.966000 823.690000
28.986000 806.560000
29.006000 756.250000
29.026000 806.560000
29.046000 852.640000
29.066000 806.560000
29.086000 789.610000
29.106000 784.000000
29.126000 778.410000
29.146000 772.840000
29.166000 756.250000
29.186000 784.000000
29.206000 789.610000
29.226000 778.410000
29.246000 767.290000
29.266000 772.840000
29.286000 806.560000
29.306000 784.000000
29.326000 734.410000
29.346000 729.000000
29.366000 767.290000
29.386000 812.250000
29.406000 756.250000
29.426000 696.960000
29.446000 702.250000
29.466000 750.760000
29.486000 806.560000
29.506000 789.610000
29.526000 761.760000
29.546000 712.890000
29.566000 729.000000
29.586000 707.560000
29.606000 784.000000
29.626000 723.610000
29.646000 676.000000
29.666000 702.250000
29.686000 718.240000
29.706000 707.560000
29.726000 718.240000
29.746000 702.250000
29.766000 707.560000
29.786000 686.440000
29.806000 702.250000
29.826000 723.610000
29.846000 734.410000
29.866000 707.560000
29.886000 745.290000
29.906000 745.290000
29.926000 772.840000
29.946000 676.000000
29.966000 750.760000
29.986000 707.560000
30.006000 702.250000
30.026000 650.250000
30.046000 635.040000
30.066000 615.040000
30.086000 712.890000
30.106000 718.240000
30.126000 676.000000
30.146000 665.640000
30.166000 670.810000
30.186000 660.490000
30.206000 681.210000
30.226000 707.560000
30.246000 707.560000
30.266000 712.890000
30.286000 676.000000
30.306000 681.210000
30.326000 670.810000
30.346000 670.810000
30.366000 665.640000
30.386000 655.360000
30.406000 681.210000
30.426000 676.000000
30.446000 655.360000
30.466000 650.250000
30.486000 696.960000
30.506000 739.840000
30.526000 676.000000
30.546000 640.090000
30.566000 660.490000
30.586000 676.000000
30.606000 660.490000
30.626000 670.810000
30.646000 702.250000
30.666000 665.640000
30.686000 650.250000
30.706000 660.490000
30.726000 660.490000
30.746000 655.360000
30.766000 640.090000
30.786000 615.040000
30.806000 640.090000
30.826000 620.010000
30.846000 681.210000
30.866000 702.250000
30.886000 686.440000
30.906000 650.250000
30.926000 665.640000
30.946000 676.000000
30.966000 635.040000
30.986000 645.160000
31.006000 660.490000
31.026000 640.090000
31.046000 681.210000
31.066000 665.640000
31.086000 660.490000
31.106000 635.040000
31.126000 655.360000
31.146000 660.490000
31.166000 691.690000
31.186000 650.250000
31.206000 620.010000
31.226000 702.250000
31.246000 635.040000
31.266000 625.000000
31.286000 640.090000
31.306000 635.040000
31.326000 615.040000
31.346000 640.090000
31.366000 605.160000
31.386000 645.160000
31.406000 670.810000
31.426000 615.040000
31.446000 605.160000
31.466000 635.040000
31.486000 650.250000
31.506000 635.040000
31.526000 610.090000
31.546000 610.090000
31.566000 660.490000
31.586000 665.640000
31.606000 615.040000
31.626000 625.000000
31.646000 620.010000
31.666000 585.640000
31.686000 615.040000
31.706000 645.160000
31.726000 630.010000
31.746000 571.210000
31.766000 590.490000
31.786000 635.040000
31.806000 605.160000
31.826000 595.360000
31.846000 605.160000
31.866000 585.640000
31.886000 590.490000
31.906000 630.010000
31.926000 610.090000
31.946000 610.090000
31.966000 595.360000
31.986000 590.490000
32.006000 542.890000
32.026000 566.440000
32.046000 600.250000
32.066000 640.090000
32.086000 650.250000
32.106000 625.000000
32.126000 605.160000
32.146000 576.000000
32.166000 585.640000
32.186000 605.160000
32.206000 595.360000
32.226000 590.490000
32.246000 615.040000
32.266000 585.640000
32.286000 552.250000
32.306000 566.440000
32.326000 580.810000
32.346000 600.250000
32.366000 566.440000
32.386000 620.010000
32.406000 595.360000
32.426000 580.810000
32.446000 590.490000
32.466000 600.250000
32.486000 524.410000
32.506000 566.440000
32.526000 571.210000
32.546000 605.160000
32.566000 561.690000
32.586000 580.810000
32.606000 615.040000
32.626000 605.160000
32.646000 585.640000
32.666000 615.040000
32.686000 580.810000
32.706000 580.810000
32.726000 620.010000
32.746000 595.360000
32.766000 566.440000
32.786000 605.160000
32.806000 585.640000
32.826000 571.210000
32.846000 515.290000
32.866000 533.610000
32.886000 524.410000
32.906000 529.000000
32.926000 566.440000
32.946000 576.000000
32.966000 590.490000
32.986000 566.440000
33.006000 561.690000
33.026000 585.640000
33.046000 585.640000
33.066000 561.690000
33.086000 556.960000
33.106000 552.250000
33.126000 605.160000
33.146000 590.490000
33.166000 561.690000
33.186000 580.810000
33.206000 561.690000
33.226000 571.210000
33.246000 580.810000
33.266000 556.960000
33.286000 538.240000
33.306000 529.000000
33.326000 519.840000
33.346000 590.490000
33.366000 595.360000
33.386000 580.810000
33.406000 600.250000
33.426000 576.000000
33.446000 556.960000
33.466000 542.890000
33.486000 576.000000
33.506000 571.210000
33.526000 576.000000
33.546000 566.440000
33.566000 552.250000
33.586000 566.440000
33.606000 552.250000
33.626000 552.250000
33.646000 556.960000
33.666000 571.210000
33.686000 492.840000
33.706000 552.250000
33.726000 561.690000
33.746000 561.690000
33.766000 492.840000
33.786000 529.000000
33.806000 524.410000
33.826000 566.440000
33.846000 510.760000
33.866000 510.760000
33.886000 510.760000
33.906000 484.000000
33.926000 561.690000
33.946000 529.000000
33.966000 524.410000
33.986000 510.760000
34.006000 524.410000
34.026000 510.760000
34.046000 501.760000
34.066000 506.250000
34.086000 542.890000
34.106000 501.760000
34.126000 506.250000
34.146000 506.250000
34.166000 501.760000
34.186000 538.240000
34.206000 552.250000
34.226000 529.000000
34.246000 506.250000
34.266000 515.290000
34.286000 552.250000
34.306000 538.240000
34.326000 519.840000
34.346000 515.290000
34.366000 506.250000
34.386000 533.610000
34.406000 538.240000
34.426000 542.890000
34.446000 538.240000
34.466000 538.240000
34.486000 519.840000
34.506000 515.290000
34.526000 484.000000
34.546000 492.840000
34.566000 519.840000
34.586000 533.610000
34.606000 519.840000
34.626000 497.290000
34.646000 506.250000
34.666000 510.760000
34.686000 506.250000
34.706000 497.290000
34.726000 475.240000
34.746000 515.290000
34.766000 524.410000
34.786000 524.410000
34.806000 492.840000
34.826000 519.840000
34.846000 524.410000
34.866000 524.410000
34.886000 529.000000
34.906000 484.000000
34.926000 484.000000
34.946000 497.290000
34.966000 556.960000
34.986000 538.240000
35.006000 492.840000
35.026000 529.000000
35.046000 542.890000
35.066000 510.760000
35.086000 484.000000
35.106000 492.840000
35.126000 542.890000
35.146000 501.760000
35.166000 492.840000
35.186000 524.410000
35.206000 529.000000
35.226000 542.890000
35.246000 501.760000
35.266000 484.000000
35.286000 515.290000
35.306000 497.290000
35.326000 501.760000
35.346000 510.760000
35.366000 519.840000
35.386000 515.290000
35.406000 488.410000
35.426000 519.840000
35.446000 524.410000
35.466000 524.410000
35.486000 515.290000
35.506000 533.610000
35.526000 519.840000
35.546000 519.840000
35.566000 533.610000
35.586000 515.290000
35.606000 510.760000
35.626000 524.410000
35.646000 506.250000
35.666000 475.240000
35.686000 492.840000
35.706000 501.760000
35.726000 510.760000
35.746000 510.760000
35.766000 488.410000
35.786000 475.240000
35.806000 501.760000
35.826000 519.840000
35.846000 515.290000
35.866000 492.840000
35.886000 501.760000
35.906000 510.760000
35.926000 492.840000
35.946000 470.890000
35.966000 470.890000
35.986000 488.410000
36.006000 497.290000
36.026000 479.610000
36.046000 497.290000
36.066000 506.250000
36.086000 484.000000
36.106000 462.250000
36.126000 488.410000
36.146000 492.840000
36.166000 449.440000
36.186000 484.000000
36.206000 470.890000
36.226000 506.250000
36.246000 515.290000
36.266000 515.290000
36.286000 556.960000
36.306000 566.440000
36.326000 552.250000
36.346000 556.960000
36.366000 610.090000
36.386000 630.010000
36.406000 686.440000
36.426000 670.810000
36.446000 817.960000
36.466000 967.210000
36.486000 1183.360000
36.506000 1369.000000
36.526000 1797.760000
36.546000 1980.250000
36.566000 1806.250000
36.586000 1466.890000
36.606000 1332.250000
36.626000 1296.000000
36.646000 1267.360000
36.666000 1030.410000
36.686000 795.240000
36.706000 600.250000
36.726000 538.240000
36.746000 519.840000
36.766000 488.410000
36.786000 470.890000
36.806000 479.610000
36.826000 501.760000
36.846000 475.240000
36.866000 466.560000
36.886000 470.890000
36.906000 484.000000
36.926000 462.250000
36.946000 436.810000
36.966000 420.250000
36.986000 445.210000
37.006000 457.960000
37.026000 445.210000
37.046000 453.690000
37.066000 453.690000
37.086000 462.250000
37.106000 466.560000
37.126000 432.640000
37.146000 428.490000
37.166000 453.690000
37.186000 453.690000
37.206000 449.440000
37.226000 416.160000
37.246000 424.360000
37.266000 412.090000
37.286000 400.000000
37.306000 424.360000
37.326000 428.490000
37.346000 453.690000
37.366000 453.690000
37.386000 453.690000
37.406000 420.250000
37.426000 462.250000
37.446000 412.090000
37.466000 436.810000
37.486000 457.960000
37.506000 457.960000
37.526000 392.040000
37.546000 441.000000
37.566000 441.000000
37.586000 457.960000
37.606000 462.250000
37.626000 424.360000
37.646000 416.160000
37.666000 462.250000
37.686000 408.040000
37.706000 416.160000
37.726000 420.250000
37.746000 432.640000
37.766000 457.960000
37.786000 416.160000
37.806000 453.690000
37.826000 428.490000
37.846000 424.360000
37.866000 424.360000
37.886000 462.250000
37.906000 462.250000
37.926000 441.000000
37.946000 445.210000
37.966000 466.560000
37.986000 462.250000
38.006000 457.960000
38.026000 462.250000
38.046000 470.890000
38.066000 441.000000
38.086000 441.000000
38.106000 420.250000
38.126000 441.000000
38.146000 412.090000
38.166000 416.160000
38.186000 420.250000
38.206000 424.360000
38.226000 424.360000
38.246000 432.640000
38.266000 428.490000
38.286000 416.160000
38.306000 396.010000
38.326000 404.010000
38.346000 428.490000
38.366000 449.440000
38.386000 449.440000
38.406000 436.810000
38.426000 428.490000
38.446000 404.010000
38.466000 432.640000
38.486000 441.000000
38.506000 453.690000
38.526000 462.250000
38.546000 449.440000
38.566000 436.810000
38.586000 428.490000
38.606000 424.360000
38.626000 428.490000
38.646000 432.640000
38.666000 392.040000
38.686000 400.000000
38.706000 424.360000
38.726000 416.160000
38.746000 424.360000
38.766000 453.690000
38.786000 376.360000
38.806000 384.160000
38.826000 404.010000
38.846000 404.010000
38.866000 396.010000
38.886000 392.040000
38.906000 400.000000
38.926000 408.040000
38.946000 408.040000
38.966000 408.040000
38.986000 412.090000
39.006000 357.210000
39.026000 412.090000
39.046000 384.160000
39.066000 396.010000
39.086000 424.360000
39.106000 412.090000
39.126000 449.440000
39.146000 441.000000
39.166000 424.360000
39.186000 436.810000
39.206000 453.690000
39.226000 470.890000
39.246000 488.410000
39.266000 484.000000
39.286000 506.250000
39.306000 542.890000
39.326000 566.440000
39.346000 590.490000
39.366000 625.000000
39.386000 723.610000
39.406000 942.490000
39.426000 1197.160000
39.446000 1513.210000
39.466000 1672.810000
39.486000 1544.490000
39.506000 1232.010000
39.526000 998.560000
39.546000 985.960000
39.566000 1043.290000
39.586000 973.440000
39.606000 795.240000
39.626000 625.000000
39.646000 515.290000
39.666000 457.960000
39.686000 449.440000
39.706000 441.000000
39.726000 420.250000
39.746000 412.090000
39.766000 408.040000
39.786000 408.040000
39.806000 416.160000
39.826000 380.250000
39.846000 400.000000
39.866000 408.040000
39.886000 400.000000
39.906000 404.010000
39.926000 388.090000
39.946000 380.250000
39.966000 380.250000
39.986000 396.010000
40.006000 392.040000
40.026000 372.490000
40.046000 384.160000
40.066000 404.010000
40.086000 420.250000
40.106000 432.640000
40.126000 441.000000
40.146000 492.840000
40.166000 484.000000
40.186000 506.250000
40.206000 566.440000
40.226000 691.690000
40.246000 864.360000
40.266000 1036.840000
40.286000 1122.250000
40.306000 1142.440000
40.326000 979.690000
40.346000 817.960000
40.366000 784.000000
40.386000 789.610000
40.406000 800.890000
40.426000 702.250000
40.446000 552.250000
40.466000 475.240000
40.486000 441.000000
40.506000 396.010000
40.526000 412.090000
40.546000 404.010000
40.566000 420.250000
40.586000 428.490000
40.606000 416.160000
40.626000 400.000000
40.646000 380.250000
40.666000 396.010000
40.686000 416.160000
40.706000 404.010000
40.726000 380.250000
40.746000 380.250000
40.766000 400.000000
40.786000 404.010000
40.806000 404.010000
40.826000 392.040000
40.846000 364.810000
40.866000 376.360000
40.886000 392.040000
40.906000 416.160000
40.926000 424.360000
40.946000 416.160000
40.966000 404.010000
40.986000 384.160000
41.006000 384.160000
41.026000 364.810000
41.046000 361.000000
41.066000 384.160000
41.086000 372.490000
41.106000 400.000000
41.126000 408.040000
41.146000 392.040000
41.166000 384.160000
41.186000 376.360000
41.206000 420.250000
41.226000 396.010000
41.246000 380.250000
41.266000 353.440000
41.286000 380.250000
41.306000 396.010000
41.326000 368.640000
41.346000 368.640000
41.366000 396.010000
41.386000 372.490000
41.406000 400.000000
41.426000 412.090000
41.446000 380.250000
41.466000 357.210000
41.486000 380.250000
41.506000 392.040000
41.526000 384.160000
41.546000 376.360000
41.566000 353.440000
41.586000 396.010000
41.606000 404.010000
41.626000 408.040000
41.646000 368.640000
41.666000 368.640000
41.686000 396.010000
41.706000 376.360000
41.726000 372.490000
41.746000 388.090000
41.766000 388.090000
41.786000 384.160000
41.806000 396.010000
41.826000 408.040000
41.846000 388.090000
41.866000 380.250000
41.886000 368.640000
41.906000 361.000000
41.926000 380.250000
41.946000 416.160000
41.966000 408.040000
41.986000 400.000000
42.006000 400.000000
42.026000 392.040000
42.046000 384.160000
42.066000 396.010000
42.086000 408.040000
42.106000 408.040000
42.126000 412.090000
42.146000 416.160000
42.166000 420.250000
42.186000 380.250000
42.206000 384.160000
42.226000 412.090000
42.246000 428.490000
42.266000 436.810000
42.286000 441.000000
42.306000 462.250000
42.326000 529.000000
42.346000 590.490000
42.366000 681.210000
42.386000 852.640000
42.406000 1056.250000
42.426000 1310.440000
42.446000 1474.560000
42.466000 1421.290000
42.486000 1190.250000
42.506000 979.690000
42.526000 900.000000
42.546000 948.640000
42.566000 985.960000
42.586000 858.490000
42.606000 665.640000
42.626000 524.410000
42.646000 457.960000
42.666000 396.010000
42.686000 392.040000
42.706000 408.040000
42.726000 424.360000
42.746000 400.000000
42.766000 408.040000
42.786000 416.160000
42.806000 396.010000
42.826000 384.160000
42.846000 380.250000
42.866000 384.160000
42.886000 353.440000
42.906000 384.160000
42.926000 364.810000
42.946000 376.360000
42.966000 400.000000
42.986000 396.010000
43.006000 380.250000
43.026000 364.810000
43.046000 384.160000
43.066000 420.250000
43.086000 408.040000
43.106000 388.090000
43.126000 364.810000
43.146000 368.640000
43.166000 368.640000
43.186000 392.040000
43.206000 376.360000
43.226000 380.250000
43.246000 372.490000
43.266000 364.810000
43.286000 392.040000
43.306000 404.010000
43.326000 404.010000
43.346000 396.010000
43.366000 392.040000
43.386000 392.040000
43.406000 384.160000
43.426000 396.010000
43.446000 400.000000
43.466000 412.090000
43.486000 424.360000
43.506000 388.090000
43.526000 392.040000
43.546000 412.090000
43.566000 400.000000
43.586000 388.090000
43.606000 372.490000
43.626000 368.640000
43.646000 364.810000
43.666000 388.090000
43.686000 376.360000
43.706000 396.010000
43.726000 372.490000
43.746000 364.810000
43.766000 384.160000
43.786000 364.810000
43.806000 392.040000
43.826000 388.090000
43.846000 384.160000
43.866000 372.490000
43.886000 368.640000
43.906000 376.360000
43.926000 380.250000
43.946000 388.090000
43.966000 384.160000
43.986000 349.690000
44.006000 361.000000
44.026000 357.210000
44.046000 364.810000
44.066000 357.210000
44.086000 357.210000
44.106000 372.490000
44.126000 372.490000
44.146000 392.040000
44.166000 388.090000
44.186000 349.690000
44.206000 368.640000
44.226000 368.640000
44.246000 353.440000
44.266000 368.640000
44.286000 372.490000
44.306000 368.640000
44.326000 364.810000
44.346000 361.000000
44.366000 364.810000
44.386000 364.810000
44.406000 361.000000
44.426000 342.250000
44.446000 404.010000
44.466000 372.490000
44.486000 353.440000
44.506000 388.090000
44.526000 400.000000
44.546000 376.360000
44.566000 368.640000
44.586000 372.490000
44.606000 372.490000
44.626000 376.360000
44.646000 368.640000
44.666000 388.090000
44.686000 380.250000
44.706000 349.690000
44.726000 353.440000
44.746000 357.210000
44.766000 361.000000
44.786000 380.250000
44.806000 388.090000
44.826000 361.000000
44.846000 376.360000
44.866000 364.810000
44.886000 357.210000
44.906000 380.250000
44.926000 384.160000
44.946000 361.000000
44.966000 345.960000
44.986000 364.810000
45.006000 372.490000
45.026000 364.810000
45.046000 384.160000
45.066000 376.360000
45.086000 372.490000
45.106000 368.640000
45.126000 380.250000
45.146000 404.010000
45.166000 380.250000
45.186000 392.040000
45.206000 376.360000
45.226000 368.640000
45.246000 372.490000
45.266000 338.560000
45.286000 388.090000
45.306000 364.810000
45.326000 353.440000
45.345999 361.000000
45.365999 349.690000
45.385999 388.090000
45.405999 380.250000
45.425999 380.250000
45.445999 380.250000
45.465999 380.250000
45.485999 384.160000
45.505999 345.960000
45.525999 353.440000
45.545999 364.810000
45.565999 384.160000
45.585999 408.040000
45.605999 396.010000
45.625999 420.250000
45.645999 449.440000
45.665999 462.250000
45.685999 488.410000
45.705999 547.560000
45.725999 676.000000
45.745999 835.210000
45.765999 979.690000
45.785999 1128.960000
45.805999 1102.240000
45.825999 936.360000
45.845999 761.760000
45.865999 712.890000
45.885999 712.890000
45.905999 745.290000
45.925999 718.240000
45.945999 650.250000
45.965999 538.240000
45.985999 449.440000
46.005999 400.000000
46.025999 392.040000
46.045999 404.010000
46.065999 388.090000
46.085999 345.960000
46.105999 353.440000
46.125999 376.360000
46.145999 372.490000
46.165999 357.210000
46.185999 376.360000
46.205999 372.490000
46.225999 376.360000
46.245999 372.490000
46.265999 364.810000
46.285999 353.440000
46.305999 376.360000
46.325999 396.010000
46.345999 361.000000
46.365999 349.690000
46.385999 368.640000
46.405999 357.210000
46.425999 384.160000
46.445999 396.010000
46.465999 388.090000
46.485999 364.810000
46.505999 368.640000
46.525999 372.490000
46.545999 364.810000
46.565999 353.440000
46.585999 353.440000
46.605999 376.360000
46.625999 364.810000
46.645999 368.640000
46.665999 388.090000
46.685999 380.250000
46.705999 388.090000
46.725999 361.000000
46.745999 396.010000
46.765999 353.440000
46.785999 345.960000
46.805999 364.810000
46.825999 372.490000
46.845999 420.250000
46.865999 396.010000
46.885999 404.010000
46.905999 408.040000
46.925999 416.160000
46.945999 396.010000
46.965999 408.040000
46.985999 441.000000
47.005999 462.250000
47.025999 484.000000
47.045999 506.250000
47.065999 590.490000
47.085999 640.090000
47.105999 650.250000
47.125999 691.690000
47.145999 772.840000
47.165999 906.010000
47.185999 1156.000000
47.205999 1592.010000
47.225999 2237.290000
47.245999 3069.160000
47.265999 4303.360000
47.285999 5944.410000
47.305999 6905.610000
47.325999 6084.000000
47.345999 4147.360000
47.365999 2883.690000
47.385999 2756.250000
47.405999 3214.890000
47.425999 3612.010000
47.445999 3294.760000
47.465999 2304.000000
47.485999 1391.290000
47.505999 894.010000
47.525999 696.960000
47.545999 585.640000
47.565999 533.610000
47.585999 515.290000
47.605999 470.890000
47.625999 470.890000
47.645999 457.960000
47.665999 408.040000
47.685999 400.000000
47.705999 408.040000
47.725999 420.250000
47.745999 380.250000
47.765999 380.250000
47.785999 392.040000
47.805999 357.210000
47.825999 380.250000
47.845999 388.090000
47.865999 392.040000
47.885999 368.640000
47.905999 368.640000
47.925999 372.490000
47.945999 376.360000
47.965999 396.010000
47.985999 372.490000
48.005999 364.810000
48.025999 388.090000
48.045999 342.250000
48.065999 357.210000
48.085999 357.210000
48.105999 368.640000
48.125999 357.210000
48.145999 368.640000
48.165999 357.210000
48.185999 331.240000
48.205999 353.440000
48.225999 368.640000
48.245999 349.690000
48.265999 324.000000
48.285999 349.690000
48.305999 372.490000
48.325999 372.490000
48.345999 357.210000
48.365999 376.360000
48.385999 361.000000
48.405999 342.250000
48.425999 357.210000
48.445999 357.210000
48.465999 338.560000
48.485999 342.250000
48.505999 349.690000
48.525999 331.240000
48.545999 338.560000
48.565999 364.810000
48.585999 361.000000
48.605999 345.960000
48.625999 345.960000
48.645999 364.810000
48.665999 357.210000
48.685999 338.560000
48.705999 345.960000
48.725999 372.490000
48.745999 364.810000
48.765999 338.560000
48.785999 334.890000
48.805999 338.560000
48.825999 327.610000
48.845999 324.000000
48.865999 320.410000
48.885999 316.840000
48.905999 327.610000
48.925999 331.240000
48.945999 349.690000
48.965999 353.440000
48.985999 345.960000
49.005999 331.240000
49.025999 345.960000
49.045999 338.560000
49.065999 316.840000
49.085999 320.410000
49.105999 327.610000
49.125999 320.410000
49.145999 306.250000
49.165999 338.560000
49.185999 353.440000
49.205999 345.960000
49.225999 331.240000
49.245999 338.560000
49.265999 327.610000
49.285999 324.000000
49.305999 324.000000
49.325999 306.250000
49.345999 302.760000
49.365999 313.290000
49.385999 316.840000
49.405999 299.290000
49.425999 299.290000
49.445999 313.290000
49.465999 342.250000
49.485999 342.250000
49.505999 324.000000
49.525999 338.560000
49.545999 302.760000
49.565999 306.250000
49.585999 327.610000
49.605999 320.410000
49.625999 313.290000
49.645999 345.960000
49.665999 331.240000
49.685999 342.250000
49.705999 327.610000
49.725999 313.290000
49.745999 334.890000
49.765999 327.610000
49.785999 338.560000
49.805999 353.440000
49.825999 372.490000
49.845999 404.010000
49.865999 388.090000
49.885999 392.040000
49.905999 428.490000
49.925999 457.960000
49.945999 449.440000
49.965999 470.890000
49.985999 506.250000
50.005999 566.440000
50.025999 729.000000
50.045999 973.440000
50.065999 1339.560000
50.085999 1797.760000
50.105999 2391.210000
50.125999 2959.360000
50.145999 2981.160000
50.165999 2470.090000
50.185999 1789.290000
50.205999 1413.760000
50.225999 1383.840000
50.245999 1497.690000
50.265999 1640.250000
50.285999 1552.360000
50.305999 1176.490000
50.325999 835.210000
50.345999 635.040000
50.365999 484.000000
50.385999 416.160000
50.405999 400.000000
50.425999 380.250000
50.445999 353.440000
50.465999 327.610000
50.485999 349.690000
50.505999 331.240000
50.525999 364.810000
50.545999 357.210000
50.565999 364.810000
50.585999 342.250000
50.605999 361.000000
50.625999 353.440000
50.645999 364.810000
50.665999 338.560000
50.685999 345.960000
50.705999 334.890000
50.725999 334.890000
50.745999 349.690000
50.765999 368.640000
50.785999 331.240000
50.805999 313.290000
50.825999 316.840000
50.845999 331.240000
50.865999 342.250000
50.885999 309.760000
50.905999 299.290000
50.925999 316.840000
50.945999 313.290000
50.965999 320.410000
50.985999 309.760000
51.005999 299.290000
51.025999 309.760000
51.045999 306.250000
51.065999 313.290000
51.085999 299.290000
51.105999 306.250000
51.125999 306.250000
51.145999 309.760000
51.165999 320.410000
51.185999 309.760000
51.205999 295.840000
51.225999 292.410000
51.245999 302.760000
51.265999 309.760000
51.285999 292.410000
51.305999 309.760000
51.325999 320.410000
51.345999 309.760000
51.365999 306.250000
51.385999 299.290000
51.405999 285.610000
51.425999 292.410000
51.445999 299.290000
51.465999 282.240000
51.485999 299.290000
51.505999 302.760000
51.525999 309.760000
51.545999 320.410000
51.565999 316.840000
51.585999 302.760000
51.605999 285.610000
51.625999 299.290000
51.645999 299.290000
51.665999 285.610000
51.685999 295.840000
51.705999 285.610000
51.725999 268.960000
51.745999 285.610000
51.765999 295.840000
51.785999 302.760000
51.805999 302.760000
51.825999 316.840000
51.845999 292.410000
51.865999 295.840000
51.885999 275.560000
51.905999 272.250000
51.925999 289.000000
51.945999 272.250000
51.965999 295.840000
51.985999 309.760000
52.005999 302.760000
52.025999 306.250000
52.045999 282.240000
52.065999 295.840000
52.085999 295.840000
52.105999 289.000000
52.125999 289.000000
52.145999 295.840000
52.165999 302.760000
52.185999 295.840000
52.205999 289.000000
52.225999 285.610000
52.245999 285.610000
52.265999 289.000000
52.285999 262.440000
52.305999 292.410000
52.325999 285.610000
52.345999 289.000000
52.365999 282.240000
52.385999 295.840000
52.405999 289.000000
52.425999 278.890000
52.445999 289.000000
52.465999 282.240000
52.485999 278.890000
52.505999 275.560000
52.525999 259.210000
52.545999 289.000000
52.565999 292.410000
52.585999 292.410000
52.605999 309.760000
52.625999 285.610000
52.645999 289.000000
52.665999 299.290000
52.685999 278.890000
52.705999 278.890000
52.725999 295.840000
52.745999 289.000000
52.765999 282.240000
52.785999 292.410000
52.805999 282.240000
52.825999 285.610000
52.845999 299.290000
52.865999 275.560000
52.885999 275.560000
52.905999 282.240000
52.925999 299.290000
52.945999 302.760000
52.965999 302.760000
52.985999 302.760000
53.005999 282.240000
53.025999 289.000000
53.045999 268.960000
53.065999 282.240000
53.085999 259.210000
53.105999 282.240000
53.125999 275.560000
53.145999 285.610000
53.165999 256.000000
53.185999 282.240000
53.205999 278.890000
53.225999 292.410000
53.245999 289.000000
53.265999 278.890000
53.285999 272.250000
53.305999 285.610000
53.325999 292.410000
53.345999 289.000000
53.365999 289.000000
53.385999 292.410000
53.405999 262.440000
53.425999 278.890000
53.445999 285.610000
53.465999 259.210000
53.485999 265.690000
53.505999 268.960000
53.525999 265.690000
53.545999 289.000000
53.565999 289.000000
53.585999 275.560000
53.605999 268.960000
53.625999 285.610000
53.645999 292.410000
53.665999 275.560000
53.685999 272.250000
53.705999 268.960000
53.725999 272.250000
53.745999 285.610000
53.765999 285.610000
53.785999 262.440000
53.805999 275.560000
53.825999 292.410000
53.845999 275.560000
53.865999 265.690000
53.885999 282.240000
53.905999 285.610000
53.925999 278.890000
53.945999 268.960000
53.965999 275.560000
53.985999 285.610000
54.005999 285.610000
54.025999 278.890000
54.045999 275.560000
54.065999 289.000000
54.085999 295.840000
54.105999 292.410000
54.125999 289.000000
54.145999 285.610000
54.165999 278.890000
54.185999 302.760000
54.205999 295.840000
54.225999 302.760000
54.245999 278.890000
54.265999 268.960000
54.285999 282.240000
54.305999 275.560000
54.325999 282.240000
54.345999 302.760000
54.365999 302.760000
54.385999 292.410000
54.405999 282.240000
54.425999 295.840000
54.445999 265.690000
54.465999 302.760000
54.485999 282.240000
54.505999 292.410000
54.525999 292.410000
54.545999 289.000000
54.565999 292.410000
54.585999 295.840000
54.605999 306.250000
54.625999 327.610000
54.645999 320.410000
54.665999 357.210000
54.685999 320.410000
54.705999 320.410000
54.725999 372.490000
54.745999 376.360000
54.765999 420.250000
54.785999 501.760000
54.805999 630.010000
54.825999 812.250000
54.845999 979.690000
54.865999 1049.760000
54.885999 1036.840000
54.905999 870.250000
54.925999 645.160000
54.945999 576.000000
54.965999 576.000000
54.985999 635.040000
55.005999 707.560000
55.025999 702.250000
55.045999 600.250000
55.065999 484.000000
55.085999 412.090000
55.105999 349.690000
55.125999 338.560000
55.145999 324.000000
55.165999 313.290000
55.185999 334.890000
55.205999 361.000000
55.225999 364.810000
55.245999 380.250000
55.265999 449.440000
55.285999 542.890000
55.305999 655.360000
55.325999 707.560000
55.345999 620.010000
55.365999 488.410000
55.385999 416.160000
55.405999 396.010000
55.425999 424.360000
55.445999 470.890000
55.465999 510.760000
55.485999 462.250000
55.505999 404.010000
55.525999 372.490000
55.545999 345.960000
55.565999 299.290000
55.585999 316.840000
55.605999 306.250000
55.625999 295.840000
55.645999 299.290000
55.665999 309.760000
55.685999 292.410000
55.705999 313.290000
55.725999 320.410000
55.745999 327.610000
55.765999 345.960000
55.785999 313.290000
55.805999 361.000000
55.825999 353.440000
55.845999 388.090000
55.865999 368.640000
55.885999 396.010000
55.905999 396.010000
55.925999 441.000000
55.945999 479.610000
55.965999 561.690000
55.985999 605.160000
56.005999 723.610000
56.025999 973.440000
56.045999 1310.440000
56.065999 1883.560000
56.085999 2724.840000
56.105999 3469.210000
56.125999 3819.240000
56.145999 3271.840000
56.165999 2162.250000
56.185999 1451.610000
56.205999 1303.210000
56.225999 1451.610000
56.245999 1705.690000
56.265999 2007.040000
56.285999 1980.250000
56.305999 1513.210000
56.325999 985.960000
56.345999 645.160000
56.365999 488.410000
56.385999 441.000000
56.405999 420.250000
56.425999 380.250000
56.445999 345.960000
56.465999 338.560000
56.485999 338.560000
56.505999 327.610000
56.525999 327.610000
56.545999 313.290000
56.565999 306.250000
56.585999 299.290000
56.605999 282.240000
56.625999 285.610000
56.645999 299.290000
56.665999 295.840000
56.685999 278.890000
56.705999 289.000000
56.725999 289.000000
56.745999 292.410000
56.765999 285.610000
56.785999 265.690000
56.805999 268.960000
56.825999 299.290000
56.845999 295.840000
56.865999 285.610000
56.885999 278.890000
56.905999 272.250000
56.925999 265.690000
56.945999 278.890000
56.965999 275.560000
56.985999 285.610000
57.005999 292.410000
57.025999 316.840000
57.045999 265.690000
57.065999 292.410000
57.085999 278.890000
57.105999 262.440000
57.125999 292.410000
57.145999 299.290000
57.165999 289.000000
57.185999 334.890000
57.205999 306.250000
57.225999 338.560000
57.245999 342.250000
57.265999 309.760000
57.285999 285.610000
57.305999 262.440000
57.325999 282.240000
57.345999 249.640000
57.365999 313.290000
57.385999 302.760000
57.405999 289.000000
57.425999 282.240000
57.445999 265.690000
57.465999 292.410000
57.485999 278.890000
57.505999 243.360000
57.525999 262.440000
57.545999 275.560000
57.565999 282.240000
57.585999 285.610000
57.605999 285.610000
57.625999 292.410000
57.645999 306.250000
57.665999 289.000000
57.685999 262.440000
57.705999 259.210000
57.725999 272.250000
57.745999 272.250000
57.765999 259.210000
57.785999 268.960000
57.805999 272.250000
57.825999 278.890000
57.845999 278.890000
57.865999 262.440000
57.885999 259.210000
57.905999 259.210000
57.925999 272.250000
57.945999 272.250000
57.965999 249.640000
57.985999 262.440000
58.005999 265.690000
58.025999 278.890000
58.045999 285.610000
58.065999 278.890000
58.085999 259.210000
58.105999 243.360000
58.125999 252.810000
58.145999 252.810000
58.165999 256.000000
58.185999 246.490000
58.205999 246.490000
58.225999 259.210000
58.245999 265.690000
58.265999 295.840000
58.285999 285.610000
58.305999 278.890000
58.325999 275.560000
58.345999 278.890000
58.365999 278.890000
58.385999 289.000000
58.405999 295.840000
58.425999 285.610000
58.445999 268.960000
58.465999 268.960000
58.485999 268.960000
58.505999 265.690000
58.525999 268.960000
58.545999 256.000000
58.565999 249.640000
58.585999 237.160000
58.605999 278.890000
58.625999 256.000000
58.645999 256.000000
58.665999 265.690000
58.685999 272.250000
58.705999 278.890000
58.725999 243.360000
58.745999 275.560000
58.765999 265.690000
58.785999 268.960000
58.805999 268.960000
58.825999 256.000000
58.845999 275.560000
58.865999 265.690000
58.885999 259.210000
58.905999 265.690000
58.925999 262.440000
58.945999 249.640000
58.965999 246.490000
58.985999 246.490000
59.005999 249.640000
59.025999 256.000000
59.045999 265.690000
59.065999 256.000000
59.085999 249.640000
59.105999 249.640000
59.125999 246.490000
59.145999 249.640000
59.165999 256.000000
59.185999 265.690000
59.205999 256.000000
59.225999 262.440000
59.245999 275.560000
59.265999 265.690000
59.285999 252.810000
59.305999 256.000000
59.325999 265.690000
59.345999 282.240000
59.365999 256.000000
59.385999 249.640000
59.405999 243.360000
59.425999 262.440000
59.445999 262.440000
59.465999 275.560000
59.485999 282.240000
59.505999 278.890000
59.525999 272.250000
59.545999 272.250000
59.565999 292.410000
59.585999 295.840000
59.605999 292.410000
59.625999 313.290000
59.645999 285.610000
59.665999 320.410000
59.685999 342.250000
59.705999 324.000000
59.725999 342.250000
59.745999 364.810000
59.765999 331.240000
59.785999 376.360000
59.805999 428.490000
59.825999 515.290000
59.845999 635.040000
59.865999 800.890000
59.885999 1069.290000
59.905999 1444.000000
59.925999 1797.760000
59.945999 2034.010000
59.965999 2070.250000
59.985999 1713.960000
60.005999 1239.040000
60.025999 942.490000
60.045999 870.250000
60.065999 967.210000
60.085999 1095.610000
60.105999 1197.160000
60.125999 1218.010000
60.145999 1056.250000
60.165999 800.890000
60.185999 576.000000
60.205999 475.240000
60.225999 396.010000
60.245999 331.240000
60.265999 327.610000
60.285999 331.240000
60.305999 302.760000
60.325999 282.240000
60.345999 289.000000
60.365999 299.290000
60.385999 285.610000
60.405999 282.240000
60.425999 285.610000
60.445999 278.890000
60.465999 268.960000
60.485999 262.440000
60.505999 262.440000
60.525999 275.560000
60.545999 265.690000
60.565999 262.440000
60.585999 256.000000
60.605999 265.690000
60.625999 282.240000
60.645999 265.690000
60.665999 262.440000
60.685999 262.440000
60.705999 259.210000
60.725999 265.690000
60.745999 252.810000
60.765999 246.490000
60.785999 259.210000
60.805999 262.440000
60.825999 262.440000
60.845999 262.440000
60.865999 275.560000
60.885999 262.440000
60.905999 262.440000
60.925999 256.000000
60.945999 249.640000
60.965999 246.490000
60.985999 265.690000
61.005999 252.810000
61.025999 243.360000
61.045999 231.040000
61.065999 249.640000
61.085999 265.690000
61.105999 240.250000
61.125999 262.440000
61.145999 256.000000
61.165999 252.810000
61.185999 243.360000
61.205999 240.250000
61.225999 262.440000
61.245999 278.890000
61.265999 249.640000
61.285999 237.160000
61.305999 234.090000
61.325999 243.360000
61.345999 275.560000
61.365999 285.610000
61.385999 262.440000
61.405999 246.490000
61.425999 246.490000
61.445999 231.040000
61.465999 237.160000
61.485999 231.040000
61.505999 249.640000
61.525999 252.810000
61.545999 262.440000
61.565999 243.360000
61.585999 252.810000
61.605999 262.440000
61.625999 262.440000
61.645999 256.000000
61.665999 246.490000
61.685999 237.160000
61.705999 265.690000
61.725999 259.210000
61.745999 246.490000
61.765999 252.810000
61.785999 246.490000
61.805999 240.250000
61.825999 262.440000
61.845999 256.000000
61.865999 265.690000
61.885999 265.690000
61.905999 268.960000
61.925999 256.000000
61.945999 249.640000
61.965999 256.000000
61.985999 249.640000
62.005999 240.250000
62.025999 246.490000
62.045999 243.360000
62.065999 268.960000
62.085999 272.250000
62.105999 262.440000
62.125999 237.160000
62.145999 246.490000
62.165999 262.440000
62.185999 265.690000
62.205999 243.360000
62.225999 228.010000
62.245999 256.000000
62.265999 272.250000
62.285999 272.250000
62.305999 262.440000
62.325999 259.210000
62.345999 278.890000
62.365999 237.160000
62.385999 234.090000
62.405999 231.040000
62.425999 237.160000
62.445999 249.640000
62.465999 234.090000
62.485999 256.000000
62.505999 246.490000
62.525999 256.000000
62.545999 268.960000
62.565999 265.690000
62.585999 268.960000
62.605999 256.000000
62.625999 265.690000
62.645999 240.250000
62.665999 249.640000
62.685999 272.250000
62.705999 262.440000
62.725999 265.690000
62.745999 256.000000
62.765999 231.040000
62.785999 228.010000
62.805999 240.250000
62.825999 243.360000
62.845999 246.490000
62.865999 256.000000
62.885999 256.000000
62.905999 249.640000
62.925999 246.490000
62.945999 240.250000
62.965999 240.250000
62.985999 246.490000
63.005999 252.810000
63.025999 249.640000
63.045999 256.000000
63.065999 249.640000
63.085999 246.490000
63.105999 252.810000
63.125999 262.440000
63.145999 252.810000
63.165999 246.490000
63.185999 256.000000
63.205999 246.490000
63.225999 231.040000
63.245999 222.010000
63.265999 246.490000
63.285999 240.250000
63.305999 237.160000
63.325999 246.490000
63.345999 256.000000
63.365999 246.490000
63.385999 240.250000
63.405999 231.040000
63.425999 249.640000
63.445999 256.000000
63.465999 249.640000
63.485999 262.440000
63.505999 256.000000
63.525999 231.040000
63.545999 246.490000
63.565999 259.210000
63.585999 252.810000
63.605999 259.210000
63.625999 249.640000
63.645999 246.490000
63.665999 243.360000
63.685999 249.640000
63.705999 256.000000
63.725999 249.640000
63.745999 262.440000
63.765999 252.810000
63.785999 249.640000
63.805999 256.000000
63.825999 262.440000
63.845999 256.000000
63.865999 246.490000
63.885999 259.210000
63.905999 299.290000
63.925999 316.840000
63.945999 334.890000
63.965999 384.160000
63.985999 436.810000
64.005999 519.840000
64.025999 576.000000
64.045999 552.250000
64.065999 470.890000
64.085999 384.160000
64.105999 342.250000
64.125999 331.240000
64.145999 342.250000
64.165999 368.640000
64.185999 404.010000
64.205999 404.010000
64.225999 404.010000
64.245999 372.490000
64.265999 309.760000
64.285999 278.890000
64.305999 268.960000
64.325999 282.240000
64.345999 272.250000
64.365999 256.000000
64.385999 256.000000
64.405999 259.210000
64.425999 262.440000
64.445999 256.000000
64.465999 259.210000
64.485999 272.250000
64.505999 262.440000
64.525999 243.360000
64.545999 225.000000
64.565999 246.490000
64.585999 237.160000
64.605999 243.360000
64.625999 252.810000
64.645999 243.360000
64.665999 262.440000
64.685999 252.810000
64.705999 237.160000
64.725999 252.810000
64.745999 243.360000
64.765999 234.090000
64.785999 246.490000
64.805999 246.490000
64.825999 237.160000
64.845999 240.250000
64.865999 262.440000
64.885999 256.000000
64.905999 252.810000
64.925999 252.810000
64.945999 240.250000
64.965999 246.490000
64.985999 237.160000
65.005999 240.250000
65.025999 243.360000
65.045999 228.010000
65.065999 246.490000
65.085999 256.000000
65.105999 234.090000
65.125999 246.490000
65.145999 252.810000
65.165999 246.490000
65.185999 256.000000
65.205999 252.810000
65.225999 259.210000
65.245999 246.490000
65.265999 246.490000
65.285999 246.490000
65.305999 259.210000
65.325999 237.160000
65.345999 225.000000
65.365999 231.040000
65.385999 256.000000
65.405999 259.210000
65.425999 246.490000
65.445999 246.490000
65.465999 259.210000
65.485999 252.810000
65.505999 256.000000
65.525999 275.560000
65.545999 246.490000
65.565999 246.490000
65.585999 252.810000
65.605999 246.490000
65.625999 259.210000
65.645999 265.690000
65.665999 278.890000
65.685999 275.560000
65.705999 282.240000
65.725999 295.840000
65.745999 320.410000
65.765999 334.890000
65.785999 320.410000
65.805999 292.410000
65.825999 275.560000
65.845999 265.690000
65.865999 265.690000
65.885999 292.410000
65.905999 285.610000
65.925999 272.250000
65.945999 292.410000
65.965999 302.760000
65.985999 299.290000
66.005999 282.240000
66.025999 259.210000
66.045999 265.690000
66.065999 259.210000
66.085999 252.810000
66.105999 259.210000
66.125999 259.210000
66.145999 268.960000
66.165999 282.240000
66.185999 262.440000
66.205999 246.490000
66.225999 237.160000
66.245999 243.360000
66.265999 249.640000
66.285999 246.490000
66.305999 246.490000
66.325999 228.010000
66.345999 216.090000
66.365999 237.160000
66.385999 240.250000
66.405999 243.360000
66.425999 237.160000
66.445999 243.360000
66.465999 262.440000
66.485999 259.210000
66.505999 249.640000
66.525999 259.210000
66.545999 249.640000
66.565999 240.250000
66.585999 246.490000
66.605999 252.810000
66.625999 228.010000
66.645999 231.040000
66.665999 246.490000
66.685999 252.810000
66.705999 252.810000
66.725999 249.640000
66.745999 243.360000
66.765999 234.090000
66.785999 246.490000
66.805999 249.640000
66.825999 256.000000
66.845999 256.000000
66.865999 249.640000
66.885999 249.640000
66.905999 252.810000
66.925999 243.360000
66.945999 240.250000
66.965999 240.250000
66.985999 256.000000
67.005999 262.440000
67.025999 252.810000
67.045999 256.000000
67.065999 249.640000
67.085999 246.490000
67.105999 249.640000
67.125999 246.490000
67.145999 243.360000
67.165999 234.090000
67.185999 231.040000
67.205999 243.360000
67.225999 246.490000
67.245999 249.640000
67.265999 256.000000
67.285999 256.000000
67.305999 256.000000
67.325999 262.440000
67.345999 259.210000
67.365999 275.560000
67.385999 272.250000
67.405999 262.440000
67.425999 289.000000
67.445999 265.690000
67.465999 289.000000
67.485999 289.000000
67.505999 289.000000
67.525999 313.290000
67.545999 327.610000
67.565999 331.240000
67.585999 404.010000
67.605999 412.090000
67.625999 484.000000
67.645999 566.440000
67.665999 670.810000
67.685999 906.010000
67.705999 1135.690000
67.725999 1260.250000
67.745999 1339.560000
67.765999 1149.210000
67.785999 823.690000
67.805999 676.000000
67.825999 580.810000
67.845999 576.000000
67.865999 610.090000
67.885999 676.000000
67.905999 806.560000
67.925999 852.640000
67.945999 789.610000
67.965999 696.960000
67.985999 600.250000
68.005999 547.560000
68.025999 580.810000
68.045999 670.810000
68.065999 789.610000
68.085999 1030.410000
68.105999 1317.690000
68.125999 1497.690000
68.145999 1513.210000
68.165999 1317.690000
68.185999 1049.760000
68.205999 918.090000
68.225999 876.160000
68.245999 985.960000
68.265999 1218.010000
68.285999 1451.610000
68.305999 1592.010000
68.325999 1584.040000
68.345999 1339.560000
68.365999 1024.000000
68.385999 778.410000
68.405999 655.360000
68.425999 605.160000
68.445999 635.040000
68.465999 665.640000
68.485999 702.250000
68.505999 702.250000
68.525999 615.040000
68.545999 529.000000
68.565999 424.360000
68.585999 349.690000
68.605999 324.000000
68.625999 306.250000
68.645999 292.410000
68.665999 278.890000
68.685999 282.240000
68.705999 295.840000
68.725999 265.690000
68.745999 265.690000
68.765999 275.560000
68.785999 272.250000
68.805999 289.000000
68.825999 282.240000
68.845999 295.840000
68.865999 295.840000
68.885999 299.290000
68.905999 272.250000
68.925999 299.290000
68.945999 295.840000
68.965999 309.760000
68.985999 342.250000
69.005999 349.690000
69.025999 412.090000
69.045999 475.240000
69.065999 580.810000
69.085999 784.000000
69.105999 942.490000
69.125999 998.560000
69.145999 942.490000
69.165999 723.610000
69.185999 533.610000
69.205999 470.890000
69.225999 420.250000
69.245999 408.040000
69.265999 441.000000
69.285999 515.290000
69.305999 600.250000
69.325999 600.250000
69.345999 556.960000
69.365999 475.240000
69.385999 368.640000
69.405999 342.250000
69.425999 292.410000
69.445999 282.240000
69.465999 275.560000
69.485999 252.810000
69.505999 272.250000
69.525999 262.440000
69.545999 256.000000
69.565999 256.000000
69.585999 259.210000
69.605999 252.810000
69.625999 246.490000
69.645999 243.360000
69.665999 243.360000
69.685999 234.090000
69.705999 240.250000
69.725999 240.250000
69.745999 228.010000
69.765999 246.490000
69.785999 256.000000
69.805999 240.250000
69.825999 237.160000
69.845999 246.490000
69.865999 249.640000
69.885999 228.010000
69.905999 225.000000
69.925999 228.010000
69.945999 240.250000
69.965999 234.090000
69.985999 231.040000
70.005999 243.360000
70.025999 231.040000
70.045999 222.010000
70.065999 246.490000
70.085999 228.010000
70.105999 243.360000
70.125999 234.090000
70.145999 237.160000
70.165999 246.490000
70.185999 246.490000
70.205999 228.010000
70.225999 228.010000
70.245999 210.250000
70.265999 222.010000
70.285999 204.490000
70.305999 231.040000
70.325999 243.360000
70.345999 240.250000
70.365999 240.250000
70.385999 259.210000
70.405999 231.040000
70.425999 234.090000
70.445999 234.090000
70.465999 225.000000
70.485999 231.040000
70.505999 243.360000
70.525999 219.040000
70.545999 222.010000
70.565999 240.250000
70.585999 249.640000
70.605999 240.250000
70.625999 234.090000
70.645999 234.090000
70.665999 216.090000
70.685999 207.360000
70.705999 222.010000
70.725999 213.160000
70.745999 216.090000
70.765999 234.090000
70.785999 225.000000
70.805999 225.000000
70.825999 243.360000
70.845999 228.010000
70.865999 213.160000
70.885999 228.010000
70.905999 237.160000
70.925999 231.040000
70.945999 234.090000
70.965999 234.090000
70.985999 237.160000
71.005999 216.090000
71.025999 210.250000
71.045999 219.040000
71.065999 228.010000
71.085999 231.040000
71.105999 240.250000
71.125999 234.090000
71.145999 237.160000
71.165999 216.090000
71.185999 207.360000
71.205999 252.810000
71.225999 231.040000
71.245999 225.000000
71.265999 231.040000
71.285999 228.010000
71.305999 222.010000
71.325999 225.000000
71.345999 213.160000
71.365999 237.160000
71.385999 237.160000
71.405999 231.040000
71.425999 219.040000
71.445999 222.010000
71.465999 222.010000
71.485999 222.010000
71.505999 243.360000
71.525999 231.040000
71.545999 231.040000
71.565999 216.090000
71.585999 225.000000
71.605999 225.000000
71.625999 234.090000
71.645999 222.010000
71.665999 228.010000
71.685999 237.160000
71.705999 222.010000
71.725999 234.090000
71.745999 225.000000
71.765999 210.250000
71.785999 225.000000
71.805999 210.250000
71.825999 210.250000
71.845999 207.360000
71.865999 213.160000
71.885999 216.090000
71.905999 216.090000
71.925999 228.010000
71.945999 234.090000
71.965999 228.010000
71.985999 237.160000
72.005999 219.040000
72.025999 222.010000
72.045999 228.010000
72.065999 222.010000
72.085999 222.010000
72.105999 228.010000
72.125999 228.010000
72.145999 219.040000
72.165999 213.160000
72.185999 228.010000
72.205999 219.040000
72.225999 228.010000
72.245999 234.090000
72.265999 231.040000
72.285999 231.040000
72.305999 234.090000
72.325999 228.010000
72.345999 237.160000
72.365999 219.040000
72.385999 219.040000
72.405999 234.090000
72.425999 237.160000
72.445999 234.090000
72.465999 237.160000
72.485999 243.360000
72.505999 231.040000
72.525999 234.090000
72.545999 213.160000
72.565999 201.640000
72.585999 225.000000
72.605999 222.010000
72.625999 234.090000
72.645999 240.250000
72.665999 213.160000
72.685999 216.090000
72.705999 228.010000
72.725999 222.010000
72.745999 237.160000
72.765999 237.160000
72.785999 252.810000
72.805999 240.250000
72.825999 231.040000
72.845999 237.160000
72.865999 237.160000
72.885999 237.160000
72.905999 222.010000
72.925999 231.040000
72.945999 240.250000
72.965999 234.090000
72.985999 219.040000
73.005999 204.490000
73.025999 231.040000
73.045999 228.010000
73.065999 231.040000
73.085999 231.040000
73.105999 225.000000
73.125999 240.250000
73.145999 249.640000
73.165999 243.360000
73.185999 231.040000
73.205999 231.040000
73.225999 234.090000
73.245999 234.090000
73.265999 256.000000
73.285999 256.000000
73.305999 262.440000
73.325999 262.440000
73.345999 275.560000
73.365999 320.410000
73.385999 368.640000
73.405999 420.250000
73.425999 462.250000
73.445999 524.410000
73.465999 542.890000
73.485999 462.250000
73.505999 396.010000
73.525999 357.210000
73.545999 309.760000
73.565999 302.760000
73.585999 302.760000
73.605999 324.000000
73.625999 357.210000
73.645999 368.640000
73.665999 357.210000
73.685999 372.490000
73.705999 349.690000
73.725999 309.760000
73.745999 272.250000
73.765999 252.810000
73.785999 249.640000
73.805999 246.490000
73.825999 237.160000
73.845999 234.090000
73.865999 237.160000
73.885999 237.160000
73.905999 216.090000
73.925999 219.040000
73.945999 216.090000
73.965999 213.160000
73.985999 228.010000
74.005999 222.010000
74.025999 213.160000
74.045999 243.360000
74.065999 222.010000
74.085999 222.010000
74.105999 228.010000
74.125999 228.010000
74.145999 213.160000
74.165999 240.250000
74.185999 228.010000
74.205999 234.090000
74.225999 231.040000
74.245999 240.250000
74.265999 234.090000
74.285999 216.090000
74.305999 216.090000
74.325999 219.040000
74.345999 225.000000
74.365999 231.040000
74.385999 231.040000
74.405999 249.640000
74.425999 240.250000
74.445999 222.010000
74.465999 234.090000
74.485999 240.250000
74.505999 228.010000
74.525999 234.090000
74.545999 234.090000
74.565999 240.250000
74.585999 237.160000
74.605999 231.040000
74.625999 225.000000
74.645999 222.010000
74.665999 228.010000
74.685999 231.040000
74.705999 219.040000
74.725999 231.040000
74.745999 234.090000
74.765999 231.040000
74.785999 231.040000
74.805999 234.090000
74.825999 237.160000
74.845999 240.250000
74.865999 234.090000
74.885999 228.010000
74.905999 225.000000
74.925999 222.010000
74.945999 219.040000
74.965999 222.010000
74.985999 231.040000
75.005999 228.010000
75.025999 234.090000
75.045999 225.000000
75.065999 228.010000
75.085999 231.040000
75.105999 237.160000
75.125999 237.160000
75.145999 246.490000
75.165999 228.010000
75.185999 228.010000
75.205999 231.040000
75.225999 237.160000
75.245999 228.010000
75.265999 225.000000
75.285999 262.440000
75.305999 252.810000
75.325999 243.360000
75.345999 243.360000
75.365999 231.040000
75.385999 252.810000
75.405999 272.250000
75.425999 246.490000
75.445999 246.490000
75.465999 249.640000
75.485999 262.440000
75.505999 285.610000
75.525999 327.610000
75.545999 331.240000
75.565999 396.010000
75.585999 484.000000
75.605999 580.810000
75.625999 660.490000
75.645999 778.410000
75.665999 734.410000
75.685999 610.090000
75.705999 488.410000
75.725999 432.640000
75.745999 372.490000
75.765999 345.960000
75.785999 361.000000
75.805999 376.360000
75.825999 416.160000
75.845999 466.560000
75.865999 510.760000
75.885999 484.000000
75.905999 432.640000
75.925999 372.490000
75.945999 327.610000
75.965999 306.250000
75.985999 299.290000
76.005999 292.410000
76.025999 289.000000
76.045999 289.000000
76.065999 295.840000
76.085999 295.840000
76.105999 285.610000
76.125999 285.610000
76.145999 285.610000
76.165999 299.290000
76.185999 316.840000
76.205999 309.760000
76.225999 349.690000
76.245999 384.160000
76.265999 453.690000
76.285999 576.000000
76.305999 723.610000
76.325999 1024.000000
76.345999 1354.240000
76.365999 1592.010000
76.385999 1608.010000
76.405999 1296.000000
76.425999 876.160000
76.445999 615.040000
76.465999 501.760000
76.485999 492.840000
76.505999 475.240000
76.525999 542.890000
76.545999 630.010000
76.565999 767.290000
76.585999 906.010000
76.605999 954.810000
76.625999 806.560000
76.645999 571.210000
76.665999 432.640000
76.685999 357.210000
76.705999 320.410000
76.725999 313.290000
76.745999 292.410000
76.765999 265.690000
76.785999 272.250000
76.805999 256.000000
76.825999 249.640000
76.845999 246.490000
76.865999 246.490000
76.885999 231.040000
76.905999 240.250000
76.925999 231.040000
76.945999 237.160000
76.965999 256.000000
76.985999 246.490000
77.005999 225.000000
77.025999 228.010000
77.045999 222.010000
77.065999 225.000000
77.085999 240.250000
77.105999 243.360000
77.125999 249.640000
77.145999 240.250000
77.165999 237.160000
77.185999 237.160000
77.205999 240.250000
77.225999 243.360000
77.245999 246.490000
77.265999 237.160000
77.285999 237.160000
77.305999 237.160000
77.325999 237.160000
77.345999 234.090000
77.365999 228.010000
77.385999 222.010000
77.405999 228.010000
77.425999 243.360000
77.445999 240.250000
77.465999 246.490000
77.485999 262.440000
77.505999 262.440000
77.525999 259.210000
77.545999 278.890000
77.565999 289.000000
77.585999 313.290000
77.605999 353.440000
77.625999 376.360000
77.645999 400.000000
77.665999 436.810000
77.685999 396.010000
77.705999 349.690000
77.725999 306.250000
77.745999 289.000000
77.765999 275.560000
77.785999 278.890000
77.805999 268.960000
77.825999 289.000000
77.845999 302.760000
77.865999 309.760000
77.885999 327.610000
77.905999 299.290000
77.925999 295.840000
77.945999 259.210000
77.965999 256.000000
77.985999 262.440000
78.005999 256.000000
78.025999 237.160000
78.045999 243.360000
78.065999 225.000000
78.085999 237.160000
78.105999 234.090000
78.125999 231.040000
78.145999 216.090000
78.165999 225.000000
78.185999 219.040000
78.205999 231.040000
78.225999 228.010000
78.245999 225.000000
78.265999 216.090000
78.285999 231.040000
78.305999 225.000000
78.325999 222.010000
78.345999 231.040000
78.365999 201.640000
78.385999 210.250000
78.405999 222.010000
78.425999 228.010000
78.445999 228.010000
78.465999 231.040000
78.485999 216.090000
78.505999 213.160000
78.525999 207.360000
78.545999 240.250000
78.565999 240.250000
78.585999 228.010000
78.605999 225.000000
78.625999 231.040000
78.645999 237.160000
78.665999 219.040000
78.685999 213.160000
78.705999 219.040000
78.725999 228.010000
78.745999 234.090000
78.765999 228.010000
78.785999 225.000000
78.805999 210.250000
78.825999 210.250000
78.845999 216.090000
78.865999 216.090000
78.885999 228.010000
78.905999 237.160000
78.925999 228.010000
78.945999 222.010000
78.965999 216.090000
78.985999 219.040000
79.005999 204.490000
79.025999 234.090000
79.045999 228.010000
79.065999 222.010000
79.085999 204.490000
79.105999 225.000000
79.125999 228.010000
79.145999 225.000000
79.165999 219.040000
79.185999 216.090000
79.205999 231.040000
79.225999 216.090000
79.245999 219.040000
79.265999 222.010000
79.285999 216.090000
79.305999 222.010000
79.325999 210.250000
79.345999 216.090000
79.365999 210.250000
79.385999 213.160000
79.405999 234.090000
79.425999 222.010000
79.445999 219.040000
79.465999 237.160000
79.485999 234.090000
79.505999 228.010000
79.525999 231.040000
79.545999 234.090000
79.565999 234.090000
79.585999 237.160000
79.605999 240.250000
79.625999 246.490000
79.645999 243.360000
79.665999 249.640000
79.685999 256.000000
79.705999 262.440000
79.725999 285.610000
79.745999 299.290000
79.765999 349.690000
79.785999 392.040000
79.805999 449.440000
79.825999 571.210000
79.845999 650.250000
79.865999 696.960000
79.885999 686.440000
79.905999 615.040000
79.925999 497.290000
79.945999 445.210000
79.965999 424.360000
79.985999 408.040000
80.005999 412.090000
80.025999 432.640000
80.045999 470.890000
80.065999 501.760000
80.085999 524.410000
80.105999 533.610000
80.125999 475.240000
80.145999 396.010000
80.165999 364.810000
80.185999 338.560000
80.205999 320.410000
80.225999 299.290000
80.245999 306.250000
80.265999 306.250000
80.285999 292.410000
80.305999 275.560000
80.325999 259.210000
80.345999 246.490000
80.365999 243.360000
80.385999 231.040000
80.405999 240.250000
80.425999 228.010000
80.445999 222.010000
80.465999 231.040000
80.485999 237.160000
80.505999 243.360000
80.525999 222.010000
80.545999 228.010000
80.565999 222.010000
80.585999 216.090000
80.605999 237.160000
80.625999 213.160000
80.645999 237.160000
80.665999 234.090000
80.685999 228.010000
80.705999 204.490000
80.725999 213.160000
80.745999 222.010000
80.765999 225.000000
80.785999 231.040000
80.805999 225.000000
80.825999 222.010000
80.845999 225.000000
80.865999 219.040000
80.885999 228.010000
80.905999 237.160000
80.925999 231.040000
80.945999 228.010000
80.965999 237.160000
80.985999 256.000000
81.005999 252.810000
81.025999 256.000000
81.045999 285.610000
81.065999 334.890000
81.085999 376.360000
81.105999 432.640000
81.125999 501.760000
81.145999 556.960000
81.165999 566.440000
81.185999 524.410000
81.205999 457.960000
81.225999 372.490000
81.245999 316.840000
81.265999 302.760000
81.285999 306.250000
81.305999 331.240000
81.325999 368.640000
81.345999 412.090000
81.365999 470.890000
81.385999 542.890000
81.405999 605.160000
81.425999 665.640000
81.445999 718.240000
81.465999 750.760000
81.485999 696.960000
81.505999 595.360000
81.525999 497.290000
81.545999 420.250000
81.565999 364.810000
81.585999 331.240000
81.605999 320.410000
81.625999 327.610000
81.645999 376.360000
81.665999 384.160000
81.685999 412.090000
81.705999 432.640000
81.725999 416.160000
81.745999 404.010000
81.765999 380.250000
81.785999 327.610000
81.805999 282.240000
81.825999 262.440000
81.845999 237.160000
81.865999 228.010000
81.885999 234.090000
81.905999 228.010000
81.925999 219.040000
81.945999 216.090000
81.965999 216.090000
81.985999 207.360000
82.005999 225.000000
82.025999 231.040000
82.045999 201.640000
82.065999 193.210000
82.085999 201.640000
82.105999 219.040000
82.125999 190.440000
82.145999 182.250000
82.165999 207.360000
82.185999 201.640000
82.205999 198.810000
82.225999 201.640000
82.245999 198.810000
82.265999 198.810000
82.285999 187.690000
82.305999 193.210000
82.325999 187.690000
82.345999 225.000000
82.365999 222.010000
82.385999 207.360000
82.405999 196.000000
82.425999 196.000000
82.445999 204.490000
82.465999 204.490000
82.485999 207.360000
82.505999 201.640000
82.525999 182.250000
82.545999 182.250000
82.565999 207.360000
82.585999 210.250000
82.605999 201.640000
82.625999 201.640000
82.645999 213.160000
82.665999 207.360000
82.685999 198.810000
82.705999 196.000000
82.725999 196.000000
82.745999 198.810000
82.765999 184.960000
82.785999 187.690000
82.805999 187.690000
82.825999 196.000000
82.845999 190.440000
82.865999 190.440000
82.885999 190.440000
82.905999 204.490000
82.925999 204.490000
82.945999 201.640000
82.965999 193.210000
82.985999 187.690000
83.005999 196.000000
83.025999 196.000000
83.045999 196.000000
83.065999 201.640000
83.085999 207.360000
83.105999 179.560000
83.125999 182.250000
83.145999 182.250000
83.165999 193.210000
83.185999 201.640000
83.205999 190.440000
83.225999 201.640000
83.245999 182.250000
83.265999 187.690000
83.285999 196.000000
83.305999 198.810000
83.325999 193.210000
83.345999 182.250000
83.365999 187.690000
83.385999 196.000000
83.405999 190.440000
83.425999 196.000000
83.445999 210.250000
83.465999 193.210000
83.485999 213.160000
83.505999 201.640000
83.525999 207.360000
83.545999 213.160000
83.565999 201.640000
83.585999 201.640000
83.605999 207.360000
83.625999 201.640000
83.645999 204.490000
83.665999 228.010000
83.685999 252.810000
83.705999 256.000000
83.725999 272.250000
83.745999 320.410000
83.765999 368.640000
83.785999 424.360000
83.805999 453.690000
83.825999 453.690000
83.845999 416.160000
83.865999 372.490000
83.885999 320.410000
83.905999 292.410000
83.925999 268.960000
83.945999 268.960000
83.965999 262.440000
83.985999 265.690000
84.005999 265.690000
84.025999 278.890000
84.045999 295.840000
84.065999 320.410000
84.085999 320.410000
84.105999 306.250000
84.125999 275.560000
84.145999 240.250000
84.165999 222.010000
84.185999 213.160000
84.205999 213.160000
84.225999 201.640000
84.245999 198.810000
84.265999 207.360000
84.285999 204.490000
84.305999 216.090000
84.325999 210.250000
84.345999 182.250000
84.365999 169.000000
84.385999 187.690000
84.405999 207.360000
84.425999 204.490000
84.445999 190.440000
84.465999 187.690000
84.485999 184.960000
84.505999 182.250000
84.525999 193.210000
84.545999 176.890000
84.565999 182.250000
84.585999 176.890000
84.605999 201.640000
84.625999 190.440000
84.645999 187.690000
84.665999 182.250000
84.685999 176.890000
84.705999 176.890000
84.725999 184.960000
84.745999 196.000000
84.765999 190.440000
84.785999 182.250000
84.805999 193.210000
84.825999 182.250000
84.845999 207.360000
84.865999 207.360000
84.885999 207.360000
84.905999 216.090000
84.925999 225.000000
84.945999 204.490000
84.965999 216.090000
84.985999 213.160000
85.005999 210.250000
85.025999 201.640000
85.045999 179.560000
85.065999 184.960000
85.085999 190.440000
85.105999 196.000000
85.125999 184.960000
85.145999 182.250000
85.165999 187.690000
85.185999 196.000000
85.205999 193.210000
85.225999 187.690000
85.245999 190.440000
85.265999 196.000000
85.285999 171.610000
85.305999 174.240000
85.325999 187.690000
85.345999 196.000000
85.365999 196.000000
85.385999 193.210000
85.405999 182.250000
85.425999 182.250000
85.445999 179.560000
85.465999 184.960000
85.485999 184.960000
85.505999 190.440000
85.525999 196.000000
85.545999 196.000000
85.565999 184.960000
85.585999 179.560000
85.605999 176.890000
85.625999 171.610000
85.645999 174.240000
85.665999 174.240000
85.685999 179.560000
85.705999 190.440000
85.725999 184.960000
85.745999 166.410000
85.765999 174.240000
85.785999 182.250000
85.805999 148.840000
85.825999 176.890000
85.845999 193.210000
85.865999 182.250000
85.885999 176.890000
85.905999 166.410000
85.925999 179.560000
85.945999 187.690000
85.965999 169.000000
85.985999 174.240000
86.005999 174.240000
86.025999 169.000000
86.045999 161.290000
86.065999 174.240000
86.085999 169.000000
86.105999 179.560000
86.125999 174.240000
86.145999 174.240000
86.165999 176.890000
86.185999 187.690000
86.205999 198.810000
86.225999 169.000000
86.245999 187.690000
86.265999 190.440000
86.285999 171.610000
86.305999 166.410000
86.325999 169.000000
86.345999 174.240000
86.365999 176.890000
86.385999 169.000000
86.405999 169.000000
86.425999 171.610000
86.445999 174.240000
86.465999 176.890000
86.485999 169.000000
86.505999 169.000000
86.525999 171.610000
86.545999 179.560000
86.565999 174.240000
86.585999 166.410000
86.605999 169.000000
86.625999 166.410000
86.645999 174.240000
86.665999 184.960000
86.685999 174.240000
86.705999 182.250000
86.725999 182.250000
86.745999 174.240000
86.765999 176.890000
86.785999 182.250000
86.805999 184.960000
86.825999 169.000000
86.845999 174.240000
86.865999 184.960000
86.885999 187.690000
86.905999 179.560000
86.925999 182.250000
86.945999 184.960000
86.965999 176.890000
86.985999 169.000000
87.005999 187.690000
87.025999 184.960000
87.045999 179.560000
87.065999 182.250000
87.085999 198.810000
87.105999 184.960000
87.125999 176.890000
87.145999 171.610000
87.165999 176.890000
87.185999 184.960000
87.205999 196.000000
87.225999 184.960000
87.245999 174.240000
87.265999 182.250000
87.285999 176.890000
87.305999 193.210000
87.325999 190.440000
87.345999 187.690000
87.365999 198.810000
87.385999 213.160000
87.405999 222.010000
87.425999 237.160000
87.445999 222.010000
87.465999 222.010000
87.485999 210.250000
87.505999 201.640000
87.525999 219.040000
87.545999 201.640000
87.565999 201.640000
87.585999 201.640000
87.605999 207.360000
87.625999 219.040000
87.645999 231.040000
87.665999 228.010000
87.685999 240.250000
87.705999 240.250000
87.725999 234.090000
87.745999 234.090000
87.765999 246.490000
87.785999 262.440000
87.805999 282.240000
87.825999 289.000000
87.845999 295.840000
87.865999 327.610000
87.885999 372.490000
87.905999 428.490000
87.925999 542.890000
87.945999 734.410000
87.965999 979.690000
87.985999 1324.960000
88.005999 1664.640000
88.025999 1866.240000
88.045999 1672.810000
88.065999 1197.160000
88.085999 846.810000
88.105999 610.090000
88.125999 470.890000
88.145999 420.250000
88.165999 408.040000
88.185999 424.360000
88.205999 470.890000
88.225999 556.960000
88.245999 681.210000
88.265999 829.440000
88.285999 967.210000
88.305999 992.250000
88.325999 846.810000
88.345999 665.640000
88.365999 462.250000
88.385999 342.250000
88.405999 299.290000
88.425999 259.210000
88.445999 265.690000
88.465999 243.360000
88.485999 228.010000
88.505999 213.160000
88.525999 201.640000
88.545999 210.250000
88.565999 210.250000
88.585999 190.440000
88.605999 187.690000
88.625999 190.440000
88.645999 196.000000
88.665999 184.960000
88.685999 171.610000
88.705999 179.560000
88.725999 187.690000
88.745999 176.890000
88.765999 169.000000
88.785999 182.250000
88.805999 182.250000
88.825999 193.210000
88.845999 187.690000
88.865999 174.240000
88.885999 171.610000
88.905999 153.760000
88.925999 171.610000
88.945999 179.560000
88.965999 174.240000
88.985999 176.890000
89.005999 182.250000
89.025999 169.000000
89.045999 158.760000
89.065999 176.890000
89.085999 176.890000
89.105999 166.410000
89.125999 163.840000
89.145999 171.610000
89.165999 184.960000
89.185999 176.890000
89.205999 179.560000
89.225999 163.840000
89.245999 158.760000
89.265999 169.000000
89.285999 169.000000
89.305999 171.610000
89.325999 161.290000
89.345999 161.290000
89.365999 169.000000
89.385999 169.000000
89.405999 166.410000
89.425999 163.840000
89.445999 169.000000
89.465999 166.410000
89.485999 176.890000
89.505999 174.240000
89.525999 161.290000
89.545999 163.840000
89.565999 163.840000
89.585999 161.290000
89.605999 176.890000
89.625999 163.840000
89.645999 158.760000
89.665999 161.290000
89.685999 148.840000
89.705999 163.840000
89.725999 163.840000
89.745999 153.760000
89.765999 151.290000
89.785999 158.760000
89.805999 158.760000
89.825999 169.000000
89.845999 158.760000
89.865999 171.610000
89.885999 179.560000
89.905999 193.210000
89.925999 174.240000
89.945999 179.560000
89.965999 169.000000
89.985999 163.840000
